Elapsed Time,Ch1,Sensor 1,Ch3,Ch4,BioRadio Event,
00:00:00,-0.873903393745422,-25.7728862762451,29.8912334442139,-68.0191650390625,0,
00:00:00.004,0.827459156513214,24.5256023406982,-28.4446430206299,64.7273635864258,0,
00:00:00.008,0.691099166870117,20.3876056671143,-23.6454181671143,53.8064651489258,0,
00:00:00.012,0.0776163563132286,2.19810938835144,-2.54935359954834,5.80119562149048,0,
00:00:00.016,-0.345126897096634,-10.4633989334106,12.1353855133057,-27.6147441864014,0,
00:00:00.02,-0.424353003501892,-12.7507877349854,14.7896118164063,-33.6734771728516,0,
00:00:00.024,-0.278397530317307,-7.84321451187134,9.09425354003906,-20.6623287200928,0,
00:00:00.028,-0.0440531633794308,-1.01877307891846,1.18080067634583,-2.67606902122498,0,
00:00:00.032,0.108940973877907,3.74939250946045,-4.34655332565308,9.86278820037842,0,
00:00:00.036,0.183855965733528,5.0801043510437,-5.89135646820068,13.3987464904785,0,
00:00:00.04,0.149093419313431,3.75276064872742,-4.3526439666748,9.90775012969971,0,
00:00:00.044,0.0536681078374386,1.39434862136841,-1.61757242679596,3.68679285049438,0,
00:00:00.048,-0.0247749071568251,-0.576525628566742,0.668009996414185,-1.51096749305725,0,
00:00:00.052,-0.0592233538627625,-1.47130632400513,1.70728635787964,-3.8974769115448,0,
00:00:00.056,-0.0574749633669853,-1.37590956687927,1.5951292514801,-3.6206591129303,0,
00:00:00.06,-0.0309550799429417,-0.726674854755402,0.842073798179626,-1.90594398975372,0,
00:00:00.064,0.011826672591269,-0.0234507508575916,0.0286713801324368,-0.0862245932221413,0,
00:00:00.068,0.0295357219874859,0.38468524813652,-0.446079313755035,1.01399230957031,0,
00:00:00.072,0.0137633588165045,0.460386097431183,-0.534334897994995,1.22134804725647,0,
00:00:00.076,-0.0211789458990097,0.307733535766602,-0.357246190309525,0.817757308483124,0,
00:00:00.08,0.0130181992426515,0.0906599834561348,-0.104608215391636,0.230370819568634,0,
00:00:00.084,0.024810278788209,-0.0777302086353302,0.0905743092298508,-0.212134853005409,0,
00:00:00.088,-0.010221129283309,-0.168872952461243,0.193945124745369,-0.379811584949493,0,
00:00:00.092,-0.0245963893830776,-0.105917729437351,0.122998252511024,-0.314728766679764,0,
00:00:00.096,0.0027465580496937,-0.0368128083646297,0.0416608825325966,-0.141475453972816,0,
00:00:00.1,0.000223040202399716,0.0102278841659427,-0.00967805273830891,0.0206195916980505,0,
00:00:00.104,0.0065599475055933,0.0239635277539492,-0.0279307458549738,0.10656201839447,0,
00:00:00.108,0.00180821935646236,0.0527567453682423,-0.0582759194076061,0.111051879823208,0,
00:00:00.112,-0.00026210374198854,0.0124320397153497,-0.0166389066725969,0.0659769102931023,0,
00:00:00.116,-0.000839628919493407,0.00797571241855621,-0.00960441585630178,0.0112761873751879,0,
00:00:00.12,0.00346541195176542,-0.0120276659727097,0.0126435682177544,-0.0255579669028521,0,
00:00:00.124,-0.0104802586138248,-0.0137131055817008,0.0154095878824592,-0.0361215472221375,0,
00:00:00.128,0.00266399746760726,-0.00133401621133089,0.00295432237908244,-0.0267838481813669,0,
00:00:00.132,0.0130508914589882,-0.00661918520927429,0.00958581082522869,-0.00981818232685328,0,
00:00:00.136,-0.0138147734105587,-0.00571714621037245,0.00175288401078433,0.00432113837450743,0,
00:00:00.14,0.000948126020375639,0.017848351970315,-0.0179335381835699,0.0107341427356005,0,
00:00:00.144,0.00403425330296159,-0.00358037813566625,0.00451192958280444,0.00987393036484718,0,
00:00:00.148,0.0064443969167769,0.00185858621262014,-0.00121017172932625,0.0051296167075634,0,
00:00:00.152,-0.00412324862554669,0.000210151498322375,0.00193348340690136,0.000151629734318703,0,
00:00:00.156,-0.0069046295247972,-0.00399279920384288,-0.00037344972952269,-0.0028247784357518,0,
00:00:00.16,0.00211341283284128,-0.00248862570151687,0.00243606441654265,-0.00335212028585374,0,
00:00:00.164,0.00259225512854755,-0.0040514562278986,0.00735002802684903,-0.0022206602152437,0,
00:00:00.168,-0.00551777752116323,0.00351163279265165,-0.00658399239182472,-0.000605088716838509,0,
00:00:00.172,0.0113952187821269,0.00908214040100574,-0.006386524066329,0.000599655322730541,0,
00:00:00.176,-0.00833691749721766,0.00306647922843695,-0.00590454740449786,0.00104665092658252,0,
00:00:00.18,-0.00120793317910284,-0.00508907623589039,0.0060030072927475,0.000858490297105163,0,
00:00:00.184,0.00591691303998232,0.00302626052871346,-0.00171644589863718,0.000379693519789726,0,
00:00:00.188,-0.00613341946154833,-0.0164371225982904,0.0169370751827955,-6.34143871138804E-05,0,
00:00:00.192,-0.00462665688246489,-0.0124924369156361,0.0121929561719298,-0.000295318342978135,0,
00:00:00.196,0.0128352558240294,0.0264042336493731,-0.0270339902490377,-0.000304092129226774,0,
00:00:00.2,0.00640122871845961,0.0160921905189753,-0.0145361172035336,-0.000178603950189427,0,
00:00:00.204,-0.00503685465082526,-0.0128990085795522,0.00864305999130011,-2.84973721136339E-05,0,
00:00:00.208,-0.0135308811441064,-0.0233769919723272,0.0237945411354303,7.15302157914266E-05,0,
00:00:00.212,-0.00266668037511408,0.0161228440701962,-0.0144316488876939,9.93043795460835E-05,0,
00:00:00.216,0.00844727456569672,-0.000479547743452713,0.00171559513546526,7.28924715076573E-05,0,
00:00:00.22,0.00606362242251635,0.00877638813108206,-0.00639637839049101,2.61358527495759E-05,0,
00:00:00.224,-0.0055179176852107,-0.00903718825429678,0.00460100825875998,-1.24351909107645E-05,0,
00:00:00.228,0.00109610799700022,-0.00188598351087421,0.00161458214279264,-2.96513062494341E-05,0,
00:00:00.232,0.0118886027485132,0.00310523086227477,-0.00209434353746474,-2.69834272330627E-05,0,
00:00:00.236,-0.0180704034864903,-0.00254398258402944,0.00548165570944548,-1.3832744116371E-05,0,
00:00:00.24,0.000794497318565845,0.00539034325629473,-0.00916598178446293,-2.00128596361537E-07,0,
00:00:00.244,-0.00160012056585401,-0.00858011189848185,0.00871692504733801,7.8585999290226E-06,0,
00:00:00.248,0.00653966004028916,0.00746131036430597,-0.00636482704430819,9.1960146164638E-06,0,
00:00:00.252,0.00896515697240829,0.000350793969118968,0.000377991120330989,6.02813133809832E-06,0,
00:00:00.256,-0.00334020843729377,-0.00591633887961507,0.00599391758441925,1.58614136580582E-06,0,
00:00:00.26,-0.00764746777713299,0.0087332371622324,-0.00907667353749275,-1.69297754837316E-06,0,
00:00:00.264,-0.00128375610802323,-0.00513476692140102,0.00679001398384571,-2.88350611299393E-06,0,
00:00:00.268,0.00766130676493049,-0.00429301662370563,-2.22327071242034E-05,-2.34118556363683E-06,0,
00:00:00.272,-0.0103196380659938,0.00619986932724714,-0.00591206923127174,-1.01839043509244E-06,0,
00:00:00.276,0.00211742077954113,-0.00324306823313236,0.00481759617105126,1.92658291098269E-07,0,
00:00:00.28,0.0045980759896338,-0.00621433416381478,0.00739091634750366,8.18161993265676E-07,0,
00:00:00.284,0.00473861629143357,0.0173419788479805,-0.0149626173079014,8.32543207707204E-07,0,
00:00:00.288,-0.00612536072731018,-0.0103554930537939,0.00595331145450473,4.83344251733797E-07,0,
00:00:00.292,-0.00134953949600458,0.000534194405190647,-0.000765927194152027,7.15070385126637E-08,0,
00:00:00.296,0.00746785802766681,0.00134172791149467,0.00177090242505074,-2.00062771682497E-07,0,
00:00:00.3,0.00198707403615117,-0.00239429948851466,-0.000788101169746369,-2.72950444468734E-07,0,
00:00:00.304,-0.00993322394788265,-0.00974561367183924,0.0103470468893647,-1.98334419110324E-07,0,
00:00:00.308,-0.0117587326094508,0.0165630988776684,-0.0153069850057364,-6.95044732879069E-08,0,
00:00:00.312,0.0113859744742513,-0.00621903222054243,0.00686020869761705,3.56940397239214E-08,0,
00:00:00.316,0.0182642098516226,0.00341548887081444,-0.00352595327422023,8.18853678197229E-08,0,
00:00:00.32,-0.0101327188313007,0.00155663734767586,1.55946545419283E-05,7.37264755912292E-08,0,
00:00:00.324,-0.0169521924108267,-0.00392171088606119,-0.000621128419879824,3.72865009978796E-08,0,
00:00:00.328,0.00503196613863111,0.000894255703315139,0.00126409740187228,-4.05841193984458E-11,0,
00:00:00.332,0.0187417939305305,-0.0130106182768941,0.0104371989145875,-2.18531877038686E-08,0,
00:00:00.336,-0.00771635817363858,0.00786842312663794,-0.00634610000997782,-2.52231640018863E-08,0,
00:00:00.34,-0.0109425503760576,0.00600826693698764,-0.00416639307513833,-1.63595839097752E-08,0,
00:00:00.344,0.00164737040176988,-2.77514700428583E-05,0.000774863292463124,-4.14894119060705E-09,0,
00:00:00.348,0.00671965815126896,0.00505015114322305,-0.00538211176171899,4.77445638580321E-09,0,
00:00:00.352,0.00318461749702692,-0.00877277459949255,0.00795746315270662,7.94224153111145E-09,0,
00:00:00.356,-0.00104714510962367,0.0030524090398103,-0.00376905687153339,6.38342712022677E-09,0,
00:00:00.36,-0.0112726669758558,-0.00477149430662394,0.0044470252469182,2.72982014770662E-09,0,
00:00:00.364,0.00120246387086809,0.00198439345695078,-0.00192334176972508,-5.79536585387785E-10,0,
00:00:00.368,0.0157589390873909,-0.00228559598326683,0.00255488301627338,-2.26594876195918E-09,0,
00:00:00.372,-0.0139047065749764,0.00413425732403994,-0.00177882378920913,-2.27890950554865E-09,0,
00:00:00.376,0.00511594722047448,0.0024044734891504,-0.00628820853307843,-1.30761046435168E-09,0,
00:00:00.38,0.0067454562522471,-0.0068145333789289,0.00717824697494507,-1.77950168489538E-10,0,
00:00:00.384,-0.004408307839185,0.0017546359449625,-0.00035219281562604,5.59245094677863E-10,0,
00:00:00.388,-0.0052408380433917,0.0050273728556931,-0.00202189316041768,7.50067008503663E-10,0,
00:00:00.392,-0.00423924392089248,-0.000657984288409352,-0.00327572831884027,5.39602751370438E-10,0,
00:00:00.396,0.00701027130708098,-0.00210957601666451,0.00202044192701578,1.84528753388591E-10,0,
00:00:00.4,-0.00418614828959107,-0.00355837238021195,0.00448465999215841,-1.02118404010643E-10,0,
00:00:00.404,0.00494777923449874,0.00164693302940577,0.00109253753907979,-2.26158494709416E-10,0,
00:00:00.408,-0.00102102058008313,0.00628757663071156,-0.010236949659884,-2.01386074483167E-10,0,
00:00:00.412,-0.000872271135449409,-0.00719073973596096,0.007246526889503,-1.004297409124E-10,0,
00:00:00.416,0.0065921014174819,0.00243249023333192,-0.00132593943271786,1.67652935804952E-12,0,
00:00:00.42,-0.00294688995927572,0.00217148591764271,-0.00138268386945128,6.08048889016999E-11,0,
00:00:00.424,-0.00419522495940328,-0.00856212060898542,0.00870357546955347,6.91593657342615E-11,0,
00:00:00.428,0.00833418779075146,0.0124488426372409,-0.0127534279599786,4.43730295562883E-11,0,
00:00:00.432,-0.0115878824144602,-0.00717023527249694,0.00675727380439639,1.08127179085371E-11,0,
00:00:00.436,-0.0149956746026874,-0.00100948463659734,0.000731366977561265,-1.34889044378639E-11,0,
00:00:00.44,0.00807766430079937,0.00539991352707148,-0.00546596851199865,-2.1826559656879E-11,0,
00:00:00.444,0.0215461142361164,-0.0109353819862008,0.0110292984172702,-1.74495869142977E-11,0,
00:00:00.448,0.000368289387552068,0.0134760150685906,-0.0133252087980509,-7.23814150976887E-12,0,
00:00:00.452,0.0025784857571125,-0.00186740816570818,0.00406406400725245,1.70897942065179E-12,0,
00:00:00.456,-0.00243526254780591,-0.013003109022975,0.00900403596460819,6.31678606990982E-12,0,
00:00:00.46,-0.0268169026821852,0.0095458161085844,-0.00714717525988817,6.1598204835478E-12,0,
00:00:00.464,0.00756869604811072,0.00290283630602062,-0.00553138507530093,3.5673267725217E-12,0,
00:00:00.468,0.0107551850378513,0.00127013621386141,3.99438504246064E-05,4.44438133214223E-13,0,
00:00:00.472,-0.00219209049828351,0.00228506559506059,-0.000660007121041417,-1.61038586979356E-12,0,
00:00:00.476,-0.000315234530717134,-0.015326326712966,0.0159454457461834,-1.9898466555035E-12,0,
00:00:00.48,-0.00164440728258342,-0.0100820558145642,0.00972843356430531,-1.56505548538216E-12,0,
00:00:00.484,0.00653544906526804,0.0278784725815058,-0.0265683364123106,-3.77777182366396E-13,0,
00:00:00.488,-0.00222418853081763,-0.00511845853179693,0.00249652727507055,2.25711064964253E-13,0,
00:00:00.492,-0.00538337416946888,0.0070268576964736,-0.0089414743706584,6.47872055482834E-13,0,
00:00:00.496,0.00255089602433145,-0.0173874497413635,0.0172904822975397,5.27795634888001E-13,0,
00:00:00.5,8.46977927722037E-05,0.00603912398219109,-0.0049354606308043,3.25500965157183E-13,0,
00:00:00.504,-0.000140874370117672,-0.00340371415950358,0.00469022989273071,-6.89514566862108E-14,0,
00:00:00.508,-0.00396709190681577,-0.00148816267028451,0.00226699118502438,-1.3487077936674E-13,0,
00:00:00.512,0.0126214567571878,0.00815963186323643,-0.00805745087563992,-1.95235470043346E-13,0,
00:00:00.516,0.0102053042501211,-0.00683699222281575,0.0043973745778203,-8.37932289743729E-14,0,
00:00:00.52,-0.0365636870265007,0.00761469034478068,-0.00613286951556802,-1.21183743378647E-13,0,
00:00:00.524,-0.0127184176817536,-0.00259348540566862,0.00387214682996273,6.11490160807096E-14,0,
00:00:00.528,0.031006932258606,-0.00292753404937685,0.00297101144678891,8.18982129834576E-14,0,
00:00:00.532,0.0258496142923832,0.00563823711127043,-0.00434773229062557,-8.29447325659439E-16,0,
00:00:00.536,-0.00514301424846053,-0.00269696698524058,-0.00223741633817554,1.01228345096484E-13,0,
00:00:00.54,-0.0176780801266432,-0.00332752685062587,0.00316345016472042,2.87128896056378E-16,0,
00:00:00.544,-0.0188997220247984,-0.00950645189732313,0.0130351129919291,3.76684902887725E-14,0,
00:00:00.548,0.00509916245937347,0.0211670007556677,-0.021819069981575,-1.47036855889689E-13,0,
00:00:00.552,0.00719017628580332,-0.00988196395337582,0.0087959561496973,-1.93912285995123E-14,0,
00:00:00.556,0.0074071791023016,0.000197654590010643,-0.00259024649858475,4.58908728888634E-14,0,
00:00:00.56,-0.0019703172147274,-0.00302075827494264,0.00744823832064867,1.52491019621672E-14,0,
00:00:00.564,0.00595801556482911,0.00161094556096941,-0.00342940748669207,3.28621149084764E-15,0,
00:00:00.568,-0.00837878230959177,0.00409201998263597,-0.00317001109942794,-4.98569151407598E-16,0,
00:00:00.572,-0.00781990215182304,-0.0032018730416894,0.00391590455546975,-1.18519920474256E-15,0,
00:00:00.576,0.00848647579550743,-0.00413396116346121,0.0060441461391747,-9.46247610432091E-16,0,
00:00:00.58,-0.000463570875581354,0.00872192904353142,-0.0134664559736848,-5.78237047019838E-16,0,
00:00:00.584,0.00331423268653452,0.00582947302609682,-0.00617433432489634,-3.03367920553561E-16,0,
00:00:00.588,-0.00129369518253952,-0.0152389332652092,0.0184441655874252,-1.40742795992428E-16,0,
00:00:00.592,0.00222035334445536,-0.00137076620012522,-0.00161967508029193,-5.73914055554848E-17,0,
00:00:00.596,-0.00702113844454288,0.00791388284415007,-0.00505744898691773,-1.95667423229826E-17,0,
00:00:00.6,-0.0053896801546216,-0.00433466443791986,0.00164059514645487,-4.55284593206433E-18,0,
00:00:00.604,0.00172310706693679,0.0044644889421761,-0.00139961461536586,3.39496119894959E-19,0,
00:00:00.608,0.0159733630716801,0.00274340296164155,-0.00548089947551489,1.32832664249978E-18,0,
00:00:00.612,-0.000731529726181179,-0.00911256019026041,0.00990661885589361,1.10989223096229E-18,0,
00:00:00.616,-0.0101780099794269,0.0073302430100739,-0.00413631740957499,6.92161989117528E-19,0,
00:00:00.62,0.00314893550239503,0.00014479884703178,-0.00383771513588727,3.68268382581092E-19,0,
00:00:00.624,-0.00238914461806417,-0.00824073795229197,0.00823011808097363,1.73054236232369E-19,0,
00:00:00.628,-0.00403047120198607,0.0126220295205712,-0.00967506878077984,7.16358379127897E-20,0,
00:00:00.632,0.00409995671361685,-0.00756231881678104,0.00408101407811046,2.50132340964389E-20,0,
00:00:00.636,0.00731023866683245,-0.00161326176021248,0.00198715971782804,6.20984317175626E-21,0,
00:00:00.64,-0.0140980035066605,0.00705424230545759,-0.00379665452055633,-8.59612072761857E-23,0,
00:00:00.644,0.00706369243562222,-0.00884000211954117,0.0075606582686305,-1.47498420121709E-21,0,
00:00:00.648,0.00825063232332468,-0.00645732926204801,0.00481526181101799,-1.29795866440151E-21,0,
00:00:00.652,-0.0143300527706742,0.0150135271251202,-0.0155969997867942,-8.27103266318993E-22,0,
00:00:00.656,0.00434944313019514,0.0036642721388489,-0.00534087046980858,-4.46439837521561E-22,0,
00:00:00.66,-0.00068786065094173,-0.00327643915079534,0.00602772133424878,-2.12485957843198E-22,0,
00:00:00.664,0.00319075025618076,-0.0174689963459969,0.0197249986231327,-8.92513315416963E-23,0,
00:00:00.668,0.0130929797887802,0.0105809960514307,-0.0101863071322441,-3.18672227132042E-23,0,
00:00:00.672,-0.00922895129770041,0.00721069751307368,-0.006108024623245,-8.36485069157928E-24,0,
00:00:00.676,-0.0113709336146712,-0.00134833017364144,-0.0040201167576015,-2.95435853880062E-25,0,
00:00:00.68,0.00352989882230759,-0.00961470790207386,0.00905354972928762,1.6195798547568E-24,0,
00:00:00.684,0.00884935725480318,0.01194660179317,-0.0107008637860417,1.51297319202523E-24,0,
00:00:00.688,-0.010586597956717,-0.00756784621626139,0.0109590133652091,9.86576269340175E-25,0,
00:00:00.692,-0.00258818757720292,-0.00125902320723981,-0.00212418008595705,5.40452944901894E-25,0,
00:00:00.696,0.0144285466521978,0.00329092610627413,-0.000887797796167433,2.60542366674647E-25,0,
00:00:00.7,0.002040003426373,-0.0025861153844744,0.00169869267847389,1.11002639429718E-25,0,
00:00:00.704,-0.00434459047392011,-0.000968237814959139,-0.00214196718297899,4.04729894544781E-26,0,
00:00:00.708,-0.0134810796007514,0.0055204788222909,-0.00377959827892482,1.11531535229558E-26,0,
00:00:00.712,0.00499280681833625,0.000255676219239831,0.0018005253514275,8.4799976194783E-28,0,
00:00:00.716,0.0147822517901659,-0.00175773992668837,0.00252241175621748,-1.75389894840677E-27,0,
00:00:00.72,-0.0179527476429939,0.0024512754753232,-0.000824539747554809,-1.75734963708813E-27,0,
00:00:00.724,0.0018793287454173,0.00358011201024055,-0.00650400202721357,-1.17458644337238E-27,0,
00:00:00.728,0.00838367361575365,-0.0214238148182631,0.0169175416231155,-6.53341544681491E-28,0,
00:00:00.732,-0.00228173169307411,-0.00473742047324777,0.00621566269546747,-3.19031113807972E-28,0,
00:00:00.736,0.00447747344151139,0.0197777282446623,-0.0151036521419883,-1.37821087564306E-28,0,
00:00:00.74,0.00308010703884065,0.015397391282022,-0.0179138518869877,-5.12552791665879E-29,0,
00:00:00.744,-0.0110538983717561,0.00253107724711299,-0.00208972441032529,-1.47444005559234E-29,0,
00:00:00.748,-0.0037540327757597,-0.0216057971119881,0.0223040524870157,-1.62760790989996E-30,0,
00:00:00.752,0.0124137923121452,-0.00418745819479227,0.00429619802162051,1.86623533198694E-30,0,
00:00:00.756,-0.00369726773351431,3.18562379106879E-05,-0.000418449402786791,2.03321458663989E-30,0,
00:00:00.76,-0.00908515322953463,-0.00115775968879461,0.00272959400899708,1.39566876855051E-30,0,
00:00:00.764,0.000482755771372467,0.0158204305917025,-0.0181228760629892,7.88677010884769E-31,0,
00:00:00.768,0.00696689216420054,-0.0105519900098443,0.00885122641921043,3.90120714162199E-31,0,
00:00:00.772,0.00468430668115616,0.00438349880278111,-0.00649751210585237,1.70839248962632E-31,0,
00:00:00.776,0.000413634203141555,0.00773215712979436,-0.00471121398732066,6.47373421059994E-32,0,
00:00:00.78,-0.000316816964186728,-0.010877619497478,0.01578014716506,1.93508895555846E-32,0,
00:00:00.784,-0.000738787988666445,-0.00886974111199379,0.00776643119752407,2.70605191309823E-33,0,
00:00:00.788,-0.011601909995079,0.0177171397954226,-0.0201371368020773,-1.94027299584818E-33,0,
00:00:00.792,-0.00610072398558259,-0.0087958974763751,0.00515742227435112,-2.34216110641188E-33,0,
00:00:00.796,0.0104109812527895,-0.000110257344204001,0.00390861555933952,-1.65491953813417E-33,0,
00:00:00.8,0.0173541754484177,0.00609552254900336,-0.00789237022399902,-9.50652311717228E-34,0,
00:00:00.804,-0.00347853405401111,-0.00482927961274982,0.00615510251373053,-4.7640834534534E-34,0,
00:00:00.808,-0.0197598692029715,-0.00759225944057107,0.00876546092331409,-2.11432610256929E-34,0,
00:00:00.812,0.000971953268162906,0.0168084725737572,-0.0146017102524638,-8.15628406946619E-35,0,
00:00:00.816,0.0105438558384776,-0.0122136380523443,0.0096198208630085,-2.52377804862361E-35,0,
00:00:00.82,0.00480499491095543,0.00722021423280239,-0.00962704606354237,-4.17521581324264E-36,0,
00:00:00.824,-0.00621450692415237,-0.00460992800071836,0.00395343266427517,1.95365310047445E-36,0,
00:00:00.828,-0.0113818095996976,-0.00337413279339671,0.00414214516058564,2.68490866412595E-36,0,
00:00:00.832,0.00710878660902381,0.00676084822043777,-0.00759595818817616,1.95801600400677E-36,0,
00:00:00.836,0.00927145406603813,-0.0011006771819666,0.00608191359788179,1.14417566645626E-36,0,
00:00:00.84,-0.00218851421959698,-0.0105123342946172,0.00841087941080332,5.80999373996422E-37,0,
00:00:00.844,-0.00411911029368639,0.0152889853343368,-0.0149920620024204,2.61269385759535E-37,0,
00:00:00.848,-0.0105432039126754,-0.00504241790622473,0.00522543163970113,1.02522470870195E-37,0,
00:00:00.852,0.00796597916632891,0.00325048714876175,-0.00157110788859427,3.27356269264088E-38,0,
00:00:00.856,0.0161947850137949,-0.00392015837132931,-0.000770955404732376,6.1522874024425E-39,0,
00:00:00.86,-0.0120389088988304,-0.00336914858780801,0.00322561548091471,-1.87614386324439E-39,0,
00:00:00.864,-0.00327514787204564,-0.00892863515764475,0.0123372236266732,-3.06084362393852E-39,0,
00:00:00.868,0.00217741751112044,0.0197088234126568,-0.0205055475234985,-2.31121620785103E-39,0,
00:00:00.872,-0.00313571374863386,-0.00965303834527731,0.00640012603253126,-1.37497507267248E-39,0,
00:00:00.876,-0.00310771213844419,0.00588560290634632,-0.00424398109316826,-7.0759967254546E-40,0,
00:00:00.88,0.00777180353179574,0.0049159717746079,-0.000785907672252506,-3.22370113016388E-40,0,
00:00:00.884,0.0085243321955204,-0.0129941441118717,0.0118387751281261,-1.28585949683374E-40,0,
00:00:00.888,-0.0113261630758643,-0.00696147698909044,0.00492828851565719,-4.22561551917149E-41,0,
00:00:00.892,-0.00334933376871049,0.00651666754856706,-0.0096897017210722,-8.7861413713166E-42,0,
00:00:00.896,0.00511552952229977,0.0112042222172022,-0.0091796675696969,1.66754517254653E-42,0,
00:00:00.9,-0.00164027325809002,-0.00316639360971749,0.00756726088002324,3.4668124007396E-42,0,
00:00:00.904,-0.00975929293781519,-0.00449996720999479,0.0013435697183013,2.72132161771879E-42,0,
00:00:00.908,0.0103073623031378,0.00244684051722288,-0.00048546475591138,1.64932829251031E-42,0,
00:00:00.912,0.0101459054276347,-0.00103172124363482,-0.000490837963297963,8.60397257095438E-43,0,
00:00:00.916,0.0026819200720638,0.000654969422612339,-0.00213228748179972,3.96567465403923E-43,0,
00:00:00.92,-0.0162976291030645,-0.00670576980337501,0.00635838182643056,1.61149323397354E-43,0,
00:00:00.924,-0.0109844235703349,0.00261017959564924,-0.00205044983886182,5.46506401086679E-44,0,
00:00:00.928,0.00205138418823481,0.0100424829870462,-0.00921154208481312,1.26116861789234E-44,0,
00:00:00.932,0.0217068251222372,-0.00825154967606068,0.00884546525776386,-1.40129846432482E-45,0,
00:00:00.936,0.00725223543122411,0.000739273906219751,-0.000569414638448507,-4.20389539297445E-45,0,
00:00:00.94,-0.00961767882108688,-0.000683517137076706,0.000514046114403754,-2.80259692864963E-45,0,
00:00:00.944,-0.0142679270356894,-0.00638888217508793,0.00608417857438326,-1.40129846432482E-45,0,
00:00:00.948,0.00583388190716505,0.0147463055327535,-0.0150036318227649,-1.40129846432482E-45,0,
00:00:00.952,0.000687403196934611,-0.00640188809484243,0.00628101220354438,0,0,
00:00:00.956,-0.0109309032559395,-0.00159066263586283,0.00160090555436909,0,0,
00:00:00.96,0.0118475370109081,0.00430575339123607,-0.00629914412274957,0,0,
00:00:00.964,0.00265486049465835,-0.00765603361651301,0.00972056481987238,0,0,
00:00:00.968,0.00195942330174148,-0.00325665064156055,0.00702939461916685,0,0,
00:00:00.972,0.00775758596137166,0.0172356609255075,-0.0190226323902607,0,0,
00:00:00.976,-0.0204135403037071,-0.0129968160763383,0.0104930112138391,0,0,
00:00:00.98,0.00112678995355964,0.00651796814054251,-0.00775122595950961,0,0,
00:00:00.984,0.0104290479794145,-0.00484262499958277,0.00503290304914117,0,0,
00:00:00.988,-0.0018579518655315,-0.00530222430825233,0.00416383799165487,0,0,
00:00:00.992,-0.000762156792916358,0.0110967177897692,-0.00611116131767631,0,0,
00:00:00.996,-0.000506420154124498,-0.00328803178854287,0.00345368171110749,0,0,
00:00:01,0.00169090053532273,-0.00785037782043219,0.00639471225440502,0,0,
00:00:01.004,-0.00010689581540646,0.00973479356616735,-0.0131224198266864,0,0,
00:00:01.008,-0.00570490350946784,0.00338036473840475,0.000137690905830823,0,0,
00:00:01.012,-0.00802352372556925,-0.00218410114757717,0.00201428751461208,0,0,
00:00:01.016,0.0165991466492414,-0.00412495387718081,0.00314179202541709,0,0,
00:00:01.02,0.00904129259288311,-0.0113669615238905,0.0107887899503112,0,0,
00:00:01.024,-0.0113512938842177,0.00706855766475201,-0.00703823566436768,0,0,
00:00:01.028,-0.0113292187452316,0.00756542105227709,-0.00718534644693136,0,0,
00:00:01.032,0.000512639351654798,-0.00794836785644293,0.0083481427282095,0,0,
00:00:01.036,0.0159953702241182,0.0162520725280046,-0.0181091111153364,0,0,
00:00:01.04,-0.0025341622531414,-0.0135064115747809,0.0175626743584871,0,0,
00:00:01.044,-0.0120002627372742,0.0057618785649538,-0.00622470956295729,0,0,
00:00:01.048,0.00498870015144348,-0.00768040213733912,0.00605902867391706,0,0,
00:00:01.052,0.00124648935161531,0.00246291514486074,-0.00566493347287178,0,0,
00:00:01.056,0.00506719993427396,0.000568176677916199,0.0032658982090652,0,0,
00:00:01.06,-0.000963036902248859,0.000238405758864246,-0.00222541578114033,0,0,
00:00:01.064,-0.000608089321758598,-0.0079985661432147,0.01118119712919,0,0,
00:00:01.068,-0.00605015782639384,0.0185851901769638,-0.0215909220278263,0,0,
00:00:01.072,-0.000239234621403739,-0.00728444289416075,0.00981244444847107,0,0,
00:00:01.076,0.00407672813162208,-0.00147086719516665,0.000406535051297396,0,0,
00:00:01.08,-0.00208978424780071,-0.000986620085313916,-0.000317366095259786,0,0,
00:00:01.084,0.00127501925453544,-0.00538313621655107,0.00497035635635257,0,0,
00:00:01.088,0.00345463585108519,-0.00109817215707153,-0.000587147020269185,0,0,
00:00:01.092,-0.00159537047147751,0.00293524749577045,-0.000279993051663041,0,0,
00:00:01.096,-5.47179333807435E-05,0.012256202287972,-0.00801602099090815,0,0,
00:00:01.1,0.00328561710193753,-0.00536031229421496,0.00373960239812732,0,0,
00:00:01.104,-0.019781531766057,-0.0103542730212212,0.00775175495073199,0,0,
00:00:01.108,0.00756575306877494,0.0123965945094824,-0.0159260965883732,0,0,
00:00:01.112,0.0129933981224895,-0.00908749364316463,0.0110518401488662,0,0,
00:00:01.116,0.00714950123801827,0.00512788305059075,-0.00265377620235085,0,0,
00:00:01.12,-0.000761458417400718,-0.00113562238402665,0.00431830296292901,0,0,
00:00:01.124,-0.0200877860188484,-0.00390723720192909,0.00164426025003195,0,0,
00:00:01.128,-0.0109528433531523,0.00552425673231483,-0.00811702944338322,0,0,
00:00:01.132,0.0254790838807821,-0.00173366570379585,0.000679245684295893,0,0,
00:00:01.136,0.00485229957848787,-0.0104060294106603,0.00875597167760134,0,0,
00:00:01.14,-0.0200787764042616,0.0157752092927694,-0.01064074318856,0,0,
00:00:01.144,-0.00170288968365639,-0.00457466905936599,0.00519285583868623,0,0,
00:00:01.148,0.0152521254494786,0.00140384945552796,-0.00244325096718967,0,0,
00:00:01.152,0.00349888205528259,0.00010526848200243,-0.00328980782069266,0,0,
00:00:01.156,-0.00300623616203666,-0.00179931393358856,0.00530117843300104,0,0,
00:00:01.16,-0.00251981872133911,-0.0167092252522707,0.0143225323408842,0,0,
00:00:01.164,-0.00719860661774874,0.0208788644522429,-0.0179660394787788,0,0,
00:00:01.168,-0.000462879193946719,-0.00260682147927582,0.00159809680189937,0,0,
00:00:01.172,0.00658282870426774,-0.000585168541874737,-0.000871351337991655,0,0,
00:00:01.176,-0.00757014937698841,-0.000694286485668272,-0.00198955368250608,0,0,
00:00:01.18,0.00201584585011005,-0.000981883378699422,0.00322142639197409,0,0,
00:00:01.184,0.0149803441017866,0.0074559710919857,-0.00308381346985698,0,0,
00:00:01.188,-0.00265069375745952,-0.0124459099024534,0.0112173492088914,0,0,
00:00:01.192,-0.0159156713634729,-0.0108423624187708,0.00860626436769962,0,0,
00:00:01.196,-0.00173333962447941,0.0170553047209978,-0.0183227024972439,0,0,
00:00:01.2,0.0134129421785474,0.00474550342187285,-0.00476022809743881,0,0,
00:00:01.204,-0.00842170976102352,0.000524757022503763,0.000191523504327051,0,0,
00:00:01.208,0.0065277386456728,-0.0115748280659318,0.0123719610273838,0,0,
00:00:01.212,0.000165623088832945,0.0100033869966865,-0.00953440926969051,0,0,
00:00:01.216,0.00071865669451654,-0.0123753389343619,0.012430228292942,0,0,
00:00:01.22,0.00115625164471567,0.00937401223927736,-0.00959594454616308,0,0,
00:00:01.224,-0.00383669883012772,-0.00262464419938624,0.0023309241514653,0,0,
00:00:01.228,-0.00737236673012376,-0.00250474526546896,0.00229303445667028,0,0,
00:00:01.232,0.0114569431170821,0.00659174146130681,-0.008741095662117,0,0,
00:00:01.236,-0.00554739823564887,-0.00385432923212647,0.00586827425286174,0,0,
00:00:01.24,-0.00659101316705346,-0.00919528212398291,0.0109249735251069,0,0,
00:00:01.244,0.00457550957798958,0.018660107627511,-0.0163285732269287,0,0,
00:00:01.248,0.00735940132290125,-0.00892239529639483,0.00406827544793487,0,0,
00:00:01.252,-0.00193029514048249,0.00294167315587401,-0.00156037101987749,0,0,
00:00:01.256,0.00146998395211995,-0.00116971367970109,5.47299941899837E-06,0,0,
00:00:01.26,-0.00695993797853589,-0.00272192340344191,0.00199108012020588,0,0,
00:00:01.264,0.00131427007727325,-0.0144750829786062,0.0147665087133646,0,0,
00:00:01.268,0.00446053640916944,0.0176513008773327,-0.0188769064843655,0,0,
00:00:01.272,0.00107703416142613,-0.00350805604830384,0.00834537204355001,0,0,
00:00:01.276,0.0021630059927702,0.00330702215433121,-0.00327140185981989,0,0,
00:00:01.28,-0.0149937374517322,0.00819454994052649,-0.0118008833378553,0,0,
00:00:01.284,-0.001229063491337,-0.00890479143708944,0.0116256279870868,0,0,
00:00:01.288,0.00796622317284346,-0.00952584575861692,0.00867749843746424,0,0,
00:00:01.292,0.00448933662846684,0.00286429584957659,-0.00621233554556966,0,0,
00:00:01.296,-0.000311863928800449,0.00913790706545115,-0.00767820468172431,0,0,
00:00:01.3,0.0140939597040415,-0.00321708992123604,0.00719988672062755,0,0,
00:00:01.304,-0.0116833569481969,-0.00124240829609334,5.28006057720631E-05,0,0,
00:00:01.308,-0.0175128802657127,0.00184981955680996,-0.00381172238849103,0,0,
00:00:01.312,0.0070925890468061,-0.0080219553783536,0.00704251043498516,0,0,
00:00:01.316,0.0129523891955614,0.0149006741121411,-0.0147488135844469,0,0,
00:00:01.32,-0.000771505990996957,-0.0112136751413345,0.0119502507150173,0,0,
00:00:01.324,-0.0134286815300584,-0.00296389241702855,0.0036849828902632,0,0,
00:00:01.328,-0.000279544794466347,0.00861516688019037,-0.00824690796434879,0,0,
00:00:01.332,0.00732043944299221,-0.00423627998679876,0.00421885587275028,0,0,
00:00:01.336,0.00718024792149663,0.0057493899948895,-0.00599611876532435,0,0,
00:00:01.34,-0.00137668556999415,-0.00650199921801686,0.00622187927365303,0,0,
00:00:01.344,-0.00197673868387938,0.00277980626560748,-0.00296130659990013,0,0,
00:00:01.348,-0.00101098895538598,-0.000107759587990586,-0.00201464025303721,0,0,
00:00:01.352,-0.00668018963187933,0.00126962969079614,0.00283357431180775,0,0,
00:00:01.356,-0.00695969955995679,-0.00454850727692246,0.00430268887430429,0,0,
00:00:01.36,-0.000407695857575163,0.0045003523118794,-0.00797051843255758,0,0,
00:00:01.364,0.0214198939502239,0.00614879466593266,-0.00308699090965092,0,0,
00:00:01.368,0.00269735790789127,-0.0264047849923372,0.025880541652441,0,0,
00:00:01.372,-0.0125703411176801,0.0072087524458766,-0.00830150675028563,0,0,
00:00:01.376,-0.00560039142146707,0.0219496246427298,-0.0224456191062927,0,0,
00:00:01.38,0.00266687548719347,0.00191156705841422,-0.00172831036616117,0,0,
00:00:01.384,0.00766258779913187,-0.00455986615270376,0.0050627812743187,0,0,
00:00:01.388,0.00390593428164721,-0.0111665511503816,0.0116150099784136,0,0,
00:00:01.392,-0.0219698362052441,0.00073637196328491,-0.000535313505679369,0,0,
00:00:01.396,0.00741782318800688,-0.00665412237867713,0.00660937465727329,0,0,
00:00:01.4,0.0120383473113179,0.00386191834695637,-0.00403921864926815,0,0,
00:00:01.404,-0.00463138520717621,0.00560654886066914,-0.00578905083239079,0,0,
00:00:01.408,-0.00427993852645159,0.00529552297666669,-0.00540429865941405,0,0,
00:00:01.412,0.0144328558817506,-0.00180813937913626,0.00178861990571022,0,0,
00:00:01.416,-0.00927767809480429,-0.00542719475924969,0.0054681021720171,0,0,
00:00:01.42,-0.0130372522398829,-0.000230118559557013,0.000288785377051681,0,0,
00:00:01.424,0.00639004446566105,0.00533649791032076,-0.0052926167845726,0,0,
00:00:01.428,0.00510782469063997,-0.00718373293057084,0.007200145162642,0,0,
00:00:01.432,0.00632081320509315,0.00297593395225704,-0.00298261852003634,0,0,
00:00:01.436,-0.000122315279440954,0.00277477758936584,-0.00279208901338279,0,0,
00:00:01.44,-0.0149643532931805,-0.00819652620702982,0.00818044133484364,0,0,
00:00:01.444,-0.00124521262478083,0.00835931859910488,-0.00836777593940496,0,0,
00:00:01.448,0.0137035120278597,0.000786177406553179,-0.000786539982073009,0,0,
00:00:01.452,-0.00623834226280451,0.000193452069652267,-0.000188924663234502,0,0,
00:00:01.456,0.0065700700506568,-0.00173483369871974,0.00174027634784579,0,0,
00:00:01.46,-0.00568166375160217,-0.00854710675776005,0.00855074636638165,0,0,
00:00:01.464,-0.00136365089565516,-0.00181013904511929,0.00181116128806025,0,0,
00:00:01.468,0.00948170758783817,0.0168785229325294,-0.0168794710189104,0,0,
00:00:01.472,0.00209266296587884,-0.0100669832900167,0.010065290145576,0,0,
00:00:01.476,-0.0197228230535984,0.0102747809141874,-0.0102761825546622,0,0,
00:00:01.48,-0.00551923783496022,-0.0154679091647267,0.013391500338912,0,0,
00:00:01.484,0.0212569031864405,0.00779301812872291,-0.00374182290397584,0,0,
00:00:01.488,-0.00143952178768814,0.00814962387084961,-0.00848242826759815,0,0,
00:00:01.492,-0.00438090926036239,-0.0111151244491339,0.00965061411261559,0,0,
00:00:01.496,0.00480914860963821,-0.00681005138903856,0.00579057168215513,0,0,
00:00:01.5,0.00984270870685577,0.0118724042549729,-0.01205725222826,0,0,
00:00:01.504,-0.0168432667851448,-0.00819629710167646,0.00651747221127152,0,0,
00:00:01.508,-0.010926035232842,0.0135255707427859,-0.00892573222517967,0,0,
00:00:01.512,0.0032542310655117,-0.00928566697984934,0.00933492369949818,0,0,
00:00:01.516,0.0226933266967535,0.00413766410201788,-0.00549480319023132,0,0,
00:00:01.52,-0.0135826747864485,-0.000124017431517132,-0.00100227352231741,0,0,
00:00:01.524,-0.0116636604070663,-0.01276970282197,0.0103192236274481,0,0,
00:00:01.528,0.0184522420167923,0.00966793578118086,-0.00537834316492081,0,0,
00:00:01.532,0.00829950254410505,0.00531688146293163,-0.00517407152801752,0,0,
00:00:01.536,-0.0077157155610621,-0.00651148892939091,0.0054375883191824,0,0,
00:00:01.54,-0.010965527035296,0.00687324535101652,-0.00773279368877411,0,0,
00:00:01.544,-0.0021111979149282,-0.00840509030967951,0.00816917419433594,0,0,
00:00:01.548,0.000438495451817289,-0.000382711208658293,0.000623497471679002,0,0,
00:00:01.552,0.0117531893774867,0.00640131207183003,-0.00600471254438162,0,0,
00:00:01.556,0.000226043310249224,-0.00196738541126251,0.000189116559340619,0,0,
00:00:01.56,-0.0164111722260714,-0.0129367085173726,0.0170862469822168,0,0,
00:00:01.564,0.00831801909953356,0.0195470917969942,-0.0199480801820755,0,0,
00:00:01.568,0.0126811694353819,-0.00494043854996562,0.00333600351586938,0,0,
00:00:01.572,-0.00636604847386479,-0.00409015826880932,0.00294732325710356,0,0,
00:00:01.576,-0.0111205540597439,0.00318845291621983,-0.00343456724658608,0,0,
00:00:01.58,0.0143787823617458,-0.000678286131005734,0.00107643147930503,0,0,
00:00:01.584,-0.0106860920786858,0.00471887225285172,-0.00413294974714518,0,0,
00:00:01.588,-0.00018879615527112,-0.0171879604458809,0.0176127813756466,0,0,
00:00:01.592,0.00917608104646206,0.0091208191588521,-0.00898582674562931,0,0,
00:00:01.596,-0.0118684740737081,0.0126055348664522,-0.0127054266631603,0,0,
00:00:01.6,0.00571489194408059,-0.0175020936876535,0.0173040926456451,0,0,
00:00:01.604,0.00340609718114138,-0.00192514061927795,0.00175321649294347,0,0,
00:00:01.608,-0.00574013683944941,0.0203474592417479,-0.0204308871179819,0,0,
00:00:01.612,0.00876084063202143,-0.00541717326268554,0.00542115839198232,0,0,
00:00:01.616,-0.000706408871337771,-0.0124855320900679,0.0125389024615288,0,0,
00:00:01.62,0.00238693342544138,0.0109550422057509,-0.0108956955373287,0,0,
00:00:01.624,-0.0131840063259006,-0.00507343141362071,0.00511080352589488,0,0,
00:00:01.628,-0.00404770905151963,-0.00433681672438979,0.00434530014172196,0,0,
00:00:01.632,0.0075725601054728,0.00237330794334412,-0.00238535436801612,0,0,
00:00:01.636,0.00610926048830152,0.00951251573860645,-0.00953138992190361,0,0,
00:00:01.64,0.00128769513685256,-0.00421719998121262,0.00420244224369526,0,0,
00:00:01.644,-0.00215616123750806,-0.0133515633642673,0.0133455516770482,0,0,
00:00:01.648,-0.0175358187407255,0.00830615870654583,-0.0083044720813632,0,0,
00:00:01.652,0.0180726945400238,0.0142191126942635,-0.0142136486247182,0,0,
00:00:01.656,-0.0051916902884841,-0.0168210789561272,0.016826406121254,0,0,
00:00:01.66,0.00699171191081405,0.00158271915279329,-0.00157976150512695,0,0,
00:00:01.664,-0.00118190026842058,0.013118002563715,-0.0131176998838782,0,0,
00:00:01.668,0.0031691137701273,-0.00976006872951984,0.00975868757814169,0,0,
00:00:01.672,-0.00593515485525131,-0.00125981157179922,0.00125803973060101,0,0,
00:00:01.676,0.0029937697108835,-0.00153413938824087,0.00153289991430938,0,0,
00:00:01.68,-0.0155892791226506,-0.00603471742942929,0.00603432161733508,0,0,
00:00:01.684,-0.00099249801132828,0.0177486967295408,-0.0156726501882076,0,0,
00:00:01.688,0.0131968352943659,-0.00960953906178474,0.00555897736921906,0,0,
00:00:01.692,-0.000337837904226035,0.00122862099669874,-0.000894873461220413,0,0,
00:00:01.696,0.00741516891866922,-0.00246667815372348,0.00393190747126937,0,0,
00:00:01.7,-0.000717293994966894,0.0035861621145159,-0.00256640301086009,0,0,
00:00:01.704,-0.00882544089108706,-0.00249055703170598,0.0026753069832921,0,0,
00:00:01.708,-0.0026073562912643,0.000732059241272509,-0.00112929043825716,0,0,
00:00:01.712,-0.00515445787459612,0.00299005000852048,-0.00353904836811125,0,0,
00:00:01.716,0.0123422602191567,0.000279787549516186,-0.00066246505593881,0,0,
00:00:01.72,0.0110636940225959,-0.00818472541868687,0.010152630507946,0,0,
00:00:01.724,-0.0162133798003197,0.00364429643377662,-0.00758881028741598,0,0,
00:00:01.728,-0.00381272099912167,-0.000468924554297701,0.000992092769593,0,0,
00:00:01.732,0.00209791492670774,0.00249278382398188,0.00120663980487734,0,0,
00:00:01.736,-0.0048990803770721,0.00367173901759088,-0.00455446215346456,0,0,
00:00:01.74,0.020540863275528,-0.00206835079006851,-0.00147303729318082,0,0,
00:00:01.744,-0.00903098750859499,0.00139174610376358,-4.28743951488286E-05,0,0,
00:00:01.748,-0.00231855059973896,-0.0136286113411188,0.0155089506879449,0,0,
00:00:01.752,0.00784314516931772,0.00893366429954767,-0.0081452252343297,0,0,
00:00:01.756,-0.010192709043622,0.00324637605808675,-0.00357277994044125,0,0,
00:00:01.76,-0.0131154283881187,-0.00612041307613254,0.00529330549761653,0,0,
00:00:01.764,0.0128797683864832,0.00687476946040988,-0.00759854447096586,0,0,
00:00:01.768,0.0186971072107553,0.00803641695529222,-0.0083548529073596,0,0,
00:00:01.772,-0.0213277041912079,-0.0138711174950004,0.0139476917684078,0,0,
00:00:01.776,-0.00612131599336863,0.0003341882256791,0.00202754163183272,0,0,
00:00:01.78,0.00853883847594261,0.00255399663001299,-0.00631424505263567,0,0,
00:00:01.784,0.00753958895802498,-0.00729546835646033,0.00779972085729241,0,0,
00:00:01.788,0.0101909097284079,0.0135768251493573,-0.0120836365967989,0,0,
00:00:01.792,-0.0145850302651525,-0.00869276560842991,0.00964529812335968,0,0,
00:00:01.796,-0.00443068007007241,0.00303809950128198,-0.00087159126996994,0,0,
00:00:01.8,-0.00429324479773641,0.00268046488054097,-0.00719815026968718,0,0,
00:00:01.804,0.00321848387829959,-0.00661847181618214,0.00637757871299982,0,0,
00:00:01.808,0.00465066963806748,0.00578551320359111,-0.00469173630699515,0,0,
00:00:01.812,0.000822878850158304,-0.00332285184413195,0.0042626871727407,0,0,
00:00:01.816,0.00865833275020123,-0.00223591248504817,0.00462875189259648,0,0,
00:00:01.82,-0.00547418277710676,0.00693829171359539,-0.0111833717674017,0,0,
00:00:01.824,-0.0105223935097456,-0.00371335865929723,0.00365667650476098,0,0,
00:00:01.828,-0.00480547780171037,-0.00301516451872885,0.00416295975446701,0,0,
00:00:01.832,0.0165678020566702,0.00846196711063385,-0.00756726367399096,0,0,
00:00:01.836,0.00621484825387597,-0.00376596115529537,0.00399931846186519,0,0,
00:00:01.84,-0.0139309419319034,-0.0127148348838091,0.0124505367130041,0,0,
00:00:01.844,0.00267453049309552,0.0128184696659446,-0.0132407434284687,0,0,
00:00:01.848,0.000604911474511027,-0.00212856405414641,0.00181513640563935,0,0,
00:00:01.852,-0.0112537574023008,0.00201811245642602,-0.00211992603726685,0,0,
00:00:01.856,0.00882175751030445,0.00315199373289943,-0.00307888211682439,0,0,
00:00:01.86,0.00778187857940793,-0.00268960162065923,0.00283724907785654,0,0,
00:00:01.864,0.00533798802644014,0.0029993592761457,-0.00286996574141085,0,0,
00:00:01.868,-0.00746852578595281,-0.0116113182157278,0.0137508250772953,0,0,
00:00:01.872,-0.0139753837138414,-0.00484311301261187,0.000790130230598152,0,0,
00:00:01.876,-0.00964397098869085,0.0120901595801115,-0.0117963021621108,0,0,
00:00:01.88,0.0201962180435658,-0.00277985818684101,0.00420039799064398,0,0,
00:00:01.884,0.0138922622427344,0.0133691895753145,-0.0123777529224753,0,0,
00:00:01.888,-0.00614268658682704,-0.0113674262538552,0.0115455742925406,0,0,
00:00:01.892,-0.00864228513091803,0.000219225286855362,-0.000607528258115053,0,0,
00:00:01.896,-0.000254670594586059,-0.00100041378755122,0.000465586723294109,0,0,
00:00:01.9,0.00253260438330472,0.00142265751492232,0.000281593500403687,0,0,
00:00:01.904,-0.0065237139351666,-0.00395378610119224,0.00187518005259335,0,0,
00:00:01.908,-0.000482660456327721,0.0029996819794178,-0.00661213230341673,0,0,
00:00:01.912,0.00266285077668726,-0.00401058001443744,0.00599466264247894,0,0,
00:00:01.916,0.00920873787254095,0.00788839999586344,-0.00524899642914534,0,0,
00:00:01.92,-0.0104692345485091,-0.000572243705391884,0.00184749544132501,0,0,
00:00:01.924,-0.00512187136337161,-0.0026277219876647,0.00240684184245765,0,0,
00:00:01.928,0.00526621006429195,-0.00593146681785584,0.00493418565019965,0,0,
00:00:01.932,0.0191196277737617,0.00573367765173316,-0.00671943929046392,0,0,
00:00:01.936,0.00192699895706028,0.00615818658843637,-0.00668139010667801,0,0,
00:00:01.94,-0.0285478383302689,-0.00846814457327127,0.00846075173467398,0,0,
00:00:01.944,-0.00416848668828607,-0.00266304612159729,0.00297155603766441,0,0,
00:00:01.948,0.0181210115551949,0.00590181397274137,-0.00553581910207868,0,0,
00:00:01.952,0.00352370832115412,0.00332993781194091,-0.00100955215748399,0,0,
00:00:01.956,-0.00282588577829301,-0.00294165196828544,-0.0010401225881651,0,0,
00:00:01.96,0.000373288377886638,-0.007190209813416,0.00746073387563229,0,0,
00:00:01.964,-0.00611445866525173,0.00497250398620963,-0.00154475984163582,0,0,
00:00:01.968,0.00279458472505212,0.00615786435082555,-0.00928312726318836,0,0,
00:00:01.972,-0.0197139140218496,-0.0080104386433959,0.0105619458481669,0,0,
00:00:01.976,0.0181384794414043,-0.00215471046976745,-0.000822587055154145,0,0,
00:00:01.98,0.0141819277778268,0.00204850966110826,0.000863019493408501,0,0,
00:00:01.984,-0.00977105088531971,0.0093892328441143,-0.010064247995615,0,0,
00:00:01.988,-0.00443747034296393,-0.00177740957587957,0.000669877626933157,0,0,
00:00:01.992,-0.00106750894337893,-0.00451676268130541,0.0020099226385355,0,0,
00:00:01.996,-0.00560233881697059,-0.00305330404080451,0.00527393072843552,0,0,
00:00:02,0.011138504371047,0.00151321908924729,0.000647533335722983,0,0,
00:00:02.004,0.00589829310774803,0.00334737705998123,-0.0027510526124388,0,0,
00:00:02.008,-0.0168271884322166,-0.00602765195071697,0.00741290673613548,0,0,
00:00:02.012,0.0035606287419796,-0.0106987599283457,0.00760891241952777,0,0,
00:00:02.016,0.0102972872555256,0.0165155772119761,-0.0189867503941059,0,0,
00:00:02.02,0.0088951587677002,0.0089383702725172,-0.0114556755870581,0,0,
00:00:02.024,-0.0185763835906982,-0.00930735561996698,0.0123295979574323,0,0,
00:00:02.028,-0.0136341266334057,0.00786448549479246,-0.00479141343384981,0,0,
00:00:02.032,0.00358649739064276,-0.0117480354383588,0.0129081243649125,0,0,
00:00:02.036,0.0209030359983444,-0.00341739458963275,0.00490575795993209,0,0,
00:00:02.04,0.00515680108219385,0.00748581858351827,-0.0107945138588548,0,0,
00:00:02.044,-0.0129552790895104,-0.00728173274546862,0.00449334690347314,0,0,
00:00:02.048,0.00683298939839005,-0.00492069637402892,0.00423890212550759,0,0,
00:00:02.052,-0.00237572961486876,0.0200179722160101,-0.0211395714432001,0,0,
00:00:02.056,-0.0220397766679525,-0.010585954412818,0.0161012634634972,0,0,
00:00:02.06,0.00987316109240055,0.00498064095154405,-0.00631411327049136,0,0,
00:00:02.064,0.0103151025250554,-0.00173273507971317,0.00466167693957686,0,0,
00:00:02.068,0.00884677097201347,-0.00495943520218134,0.00127188628539443,0,0,
00:00:02.072,-0.00893117673695087,0.00662658317014575,-0.00473800534382463,0,0,
00:00:02.076,-0.00498401094228029,-0.00836445856839418,0.00488576060160995,0,0,
00:00:02.08,0.00557651929557323,-0.00600561546161771,0.00666100159287453,0,0,
00:00:02.084,-0.00623268494382501,0.019320534542203,-0.0179108716547489,0,0,
00:00:02.088,0.0074510988779366,-0.00867463648319244,0.00946032162755728,0,0,
00:00:02.092,-0.00560238491743803,0.00117087585385889,-0.00118690228555351,0,0,
00:00:02.096,0.00032645181636326,0.00107074214611202,-0.00153395941015333,0,0,
00:00:02.1,-0.00519572244957089,-0.000991604290902615,0.000501395959872752,0,0,
00:00:02.104,0.0103762978687882,-0.0143995331600308,0.0141325406730175,0,0,
00:00:02.108,-0.0076225008815527,0.0124538205564022,-0.0124581977725029,0,0,
00:00:02.112,0.00683402083814144,0.00959873292595148,-0.00943851750344038,0,0,
00:00:02.116,0.00362831586971879,0.00011899109085789,0.00214868015609682,0,0,
00:00:02.12,-0.0124850869178772,-0.0224008001387119,0.0205551981925964,0,0,
00:00:02.124,0.0010791172971949,0.0137359397485852,-0.0174155328422785,0,0,
00:00:02.128,0.0105381049215794,-0.00442905677482486,0.00619578082114458,0,0,
00:00:02.132,-0.00725415162742138,0.00620777020230889,-0.00378182088024914,0,0,
00:00:02.136,-0.0110221114009619,0.00550972297787666,-0.00435459893196821,0,0,
00:00:02.14,0.0175683125853539,-0.009573083370924,0.00933804269880056,0,0,
00:00:02.144,0.00355644780211151,-0.00355895725078881,0.00261552585288882,0,0,
00:00:02.148,0.00254729320295155,0.00553188333287835,-0.00644714431837201,0,0,
00:00:02.152,-0.0110441613942385,0.00344309117645025,-0.00391632132232189,0,0,
00:00:02.156,0.000140064730658196,-0.00258403364568949,0.002593157812953,0,0,
00:00:02.16,-0.0131355840712786,-0.00683754496276379,0.00713591836392879,0,0,
00:00:02.164,-0.013308078981936,0.00724927335977554,-0.00482886377722025,0,0,
00:00:02.168,0.0275575444102287,0.00420962879434228,-0.00595909915864468,0,0,
00:00:02.172,0.0125412782654166,-0.0118141081184149,0.00815644301474094,0,0,
00:00:02.176,-0.000536192557774484,0.00368022033944726,0.000131462802528404,0,0,
00:00:02.18,-0.00503369746729732,0.00465165358036757,-0.00632522348314524,0,0,
00:00:02.184,-0.00521522806957364,-0.00704791164025664,0.00849840417504311,0,0,
00:00:02.188,0.000668722263071686,0.0125676859170198,-0.0113532096147537,0,0,
00:00:02.192,-0.0281810816377401,-0.0079393656924367,0.0100957630202174,0,0,
00:00:02.196,-0.0063293338753283,-0.00402144342660904,-0.000746027333661914,0,0,
00:00:02.2,0.0484516397118568,0.00884352065622807,-0.00936687365174294,0,0,
00:00:02.204,-0.000491227256134152,-0.00517891813069582,0.00818753335624933,0,0,
00:00:02.208,-0.000150869163917378,-0.00823961850255728,0.00720057869330049,0,0,
00:00:02.212,-0.00632750801742077,0.01048843562603,-0.0137881729751825,0,0,
00:00:02.216,-0.0381298922002316,0.00653399806469679,-0.00480493810027838,0,0,
00:00:02.22,0.00407199235633016,-0.00547094643115997,0.00765365082770586,0,0,
00:00:02.224,0.0258941724896431,-0.0160250943154097,0.0169423315674067,0,0,
00:00:02.228,-0.0249749887734652,0.0121186263859272,-0.0124724376946688,0,0,
00:00:02.232,0.0629646256566048,0.00975761469453573,-0.00861578434705734,0,0,
00:00:02.236,0.00165189581457525,-0.00169604097027332,-0.00111047027166933,0,0,
00:00:02.24,-0.044200487434864,-0.0160806439816952,0.0119827333837748,0,0,
00:00:02.244,-0.0659370943903923,0.00943567231297493,-0.00756925484165549,0,0,
00:00:02.248,0.0576633587479591,-0.00348557438701391,0.00628258381038904,0,0,
00:00:02.252,0.0594529882073402,0.00671425554901361,-0.00310766184702516,0,0,
00:00:02.256,-0.034343384206295,-0.0014632121892646,-0.000527916185092181,0,0,
00:00:02.26,-0.0388649590313435,-0.000651185982860625,-0.00189994322136045,0,0,
00:00:02.264,-0.00234174565412104,-0.0136842774227262,0.0104278605431318,0,0,
00:00:02.268,0.0362352170050144,0.0188824646174908,-0.0166597776114941,0,0,
00:00:02.272,-0.00132038607262075,-0.00701110158115625,0.00960041303187609,0,0,
00:00:02.276,-0.0121864108368754,0.000437280628830194,0.000636702170595527,0,0,
00:00:02.28,0.0289631150662899,0.00339988293126225,-0.00380097213201225,0,0,
00:00:02.284,-0.0236693844199181,0.000262483314145356,0.00074695743387565,0,0,
00:00:02.288,-0.0530675314366817,-0.00238303397782147,-0.00261426763609052,0,0,
00:00:02.292,0.0629462897777557,-0.0110653303563595,0.0130449179559946,0,0,
00:00:02.296,0.0611153095960617,0.00638990895822644,-0.00889457017183304,0,0,
00:00:02.3,-0.126712307333946,0.0108120804652572,-0.00702536571770906,0,0,
00:00:02.304,0.0370041057467461,-0.0145718287676573,0.0146180642768741,0,0,
00:00:02.308,-0.0373888835310936,0.0127404723316431,-0.0156131638213992,0,0,
00:00:02.312,0.10717661678791,-0.00794665422290564,0.00942134577780962,0,0,
00:00:02.316,0.0060681845061481,0.00347762601450086,-0.00185579457320273,0,0,
00:00:02.32,-0.0717132389545441,0.00666193244978786,-0.00623386353254318,0,0,
00:00:02.324,0.00751319667324424,-0.00688156858086586,0.00630349200218916,0,0,
00:00:02.328,-0.0757000297307968,-0.0163712278008461,0.0154734859243035,0,0,
00:00:02.332,0.11461628973484,0.0150309586897492,-0.0136080421507359,0,0,
00:00:02.336,0.0449450686573982,0.00486125377938151,-0.00910490937530994,0,0,
00:00:02.34,-0.139813646674156,0.00150732777547091,0.00108343525789678,0,0,
00:00:02.344,0.033539704978466,-0.0106312064453959,0.0104551184922457,0,0,
00:00:02.348,0.0722804740071297,0.0104837473481894,-0.0108207324519753,0,0,
00:00:02.352,-0.0331797450780869,-0.0123757598921657,0.0104441624134779,0,0,
00:00:02.356,-0.0235868934541941,0.00702159153297544,-0.00460920389741659,0,0,
00:00:02.36,-0.0201736614108086,-0.000963620434049517,0.00299490871839225,0,0,
00:00:02.364,0.0413673520088196,-0.00106057990342379,0.00346293533220887,0,0,
00:00:02.368,-0.0188165418803692,0.0067259194329381,-0.0117073617875576,0,0,
00:00:02.372,0.0303470324724913,-0.00255412282422185,0.00165191292762756,0,0,
00:00:02.376,0.0155990244820714,-0.0120951654389501,0.014806711114943,0,0,
00:00:02.38,-0.0627918913960457,0.014391677454114,-0.0176170486956835,0,0,
00:00:02.384,0.0473869368433952,-0.00509785767644644,0.00590165378525853,0,0,
00:00:02.388,-0.0613805279135704,0.00166671327315271,0.00193330529145896,0,0,
00:00:02.392,-0.0192510932683945,-0.00132856564596295,-0.00188565137796104,0,0,
00:00:02.396,0.110658742487431,0.000779649242758751,-0.000485777331050485,0,0,
00:00:02.4,-0.0246246866881847,-0.01058688480407,0.0135923642665148,0,0,
00:00:02.404,-0.0328951738774776,0.0150587549433112,-0.018659919500351,0,0,
00:00:02.408,0.0359532162547112,-0.00491603277623653,0.00718762213364244,0,0,
00:00:02.412,-0.0220777299255133,0.0015516949351877,-0.00455933762714267,0,0,
00:00:02.416,-0.0363762825727463,0.000500065332744271,0.00254809390753508,0,0,
00:00:02.42,0.00691546918824315,-0.00351144699379802,0.000940061290748417,0,0,
00:00:02.424,-0.015573994256556,-0.00832816958427429,0.0114007145166397,0,0,
00:00:02.428,0.124929770827293,0.0124284755438566,-0.0131481569260359,0,0,
00:00:02.432,-0.149426445364952,0.000619745987933129,-0.001863126992248,0,0,
00:00:02.436,0.0879898443818092,-0.00691720889881253,0.0063626766204834,0,0,
00:00:02.44,-0.019740741699934,0.00381370121613145,-0.00570304319262505,0,0,
00:00:02.444,-0.0182690229266882,0.000718287017662078,0.00178216071799397,0,0,
00:00:02.448,0.0189586635679007,0.00555964512750506,-0.00345547613687813,0,0,
00:00:02.452,0.0371468253433704,-0.0130248656496406,0.0154760312289,0,0,
00:00:02.456,-0.0826134830713272,0.000504119321703911,-0.00545647367835045,0,0,
00:00:02.46,-0.00659651262685657,0.00644357316195965,-0.0052548861131072,0,0,
00:00:02.464,0.0884088948369026,-0.0028043317142874,-0.000605021545197815,0,0,
00:00:02.468,-0.0298936385661364,0.0073310867883265,-0.00409554690122604,0,0,
00:00:02.472,-0.00246587675064802,0.0023236870765686,-0.00236497912555933,0,0,
00:00:02.476,0.00380620290525258,-0.0138609586283565,0.0112204030156136,0,0,
00:00:02.48,-0.0745880082249641,0.0024938799906522,0.00138117221649736,0,0,
00:00:02.484,-0.0104085179045796,0.00450501078739762,-0.00669286213815212,0,0,
00:00:02.488,0.117281429469585,-0.00859228521585464,0.0094435065984726,0,0,
00:00:02.492,0.0510909557342529,0.0152429137378931,-0.0143931368365884,0,0,
00:00:02.496,-0.10967505723238,-0.00787667743861675,0.00790323689579964,0,0,
00:00:02.5,-0.015966359525919,0.00244537997059524,-0.00300195487216115,0,0,
00:00:02.504,0.000776908709667623,0.00558922160416842,-0.00414963439106941,0,0,
00:00:02.508,0.033942062407732,-0.0157556179910898,0.0113353161141276,0,0,
00:00:02.512,-0.0109101999551058,0.00397407030686736,-0.00366431125439703,0,0,
00:00:02.516,0.0403189621865749,0.00592190120369196,-0.00424958160147071,0,0,
00:00:02.52,-0.0701361447572708,-0.00617703283205628,0.00745968706905842,0,0,
00:00:02.524,0.0119347479194403,0.0127610061317682,-0.0103134615346789,0,0,
00:00:02.528,0.0454536266624928,-0.010267922654748,0.0058836666867137,0,0,
00:00:02.532,0.0483032166957855,0.00589730078354478,-0.00407199328765273,0,0,
00:00:02.536,-0.148866608738899,-0.0101050669327378,0.00705879321321845,0,0,
00:00:02.54,0.00750440778210759,0.00854357518255711,-0.00736762350425124,0,0,
00:00:02.544,0.120010755956173,-0.00981614459306002,0.0115379365161061,0,0,
00:00:02.548,-0.000848219206091017,0.0135958949103951,-0.012782939709723,0,0,
00:00:02.552,-0.0187798999249935,-0.00625314377248287,0.0081442529335618,0,0,
00:00:02.556,-0.0124941179528832,0.00316351652145386,-0.00582205923274159,0,0,
00:00:02.56,-0.0967296659946442,-0.00536060705780983,0.00099276565015316,0,0,
00:00:02.564,0.0614578537642956,-0.00273238844238222,0.00420597894117236,0,0,
00:00:02.568,0.0289667174220085,0.00965053960680962,-0.00506814895197749,0,0,
00:00:02.572,0.000801506452262402,-0.00471969600766897,0.00209736917167902,0,0,
00:00:02.576,-0.00749040627852082,-0.0101920505985618,0.0126393241807818,0,0,
00:00:02.58,-0.0271569695323706,0.0123323351144791,-0.0136286448687315,0,0,
00:00:02.584,0.0276325959712267,0.00585691863670945,-0.00944751407951117,0,0,
00:00:02.588,-0.0550300478935242,-0.00353895151056349,0.00498323468491435,0,0,
00:00:02.592,0.0755935460329056,-0.000817610882222652,0.00490107666701078,0,0,
00:00:02.596,0.0447569862008095,-0.0129558425396681,0.0118700480088592,0,0,
00:00:02.6,-0.0423490256071091,0.00463939923793077,-0.00862996932119131,0,0,
00:00:02.604,-0.0488162226974964,0.00620634946972132,-0.0031485881190747,0,0,
00:00:02.608,0.000992595101706684,-0.0100127905607224,0.00978410616517067,0,0,
00:00:02.612,-0.0280423797667027,0.0190623290836811,-0.0219145715236664,0,0,
00:00:02.616,0.0492638051509857,-0.00676696607843041,0.0104909716174006,0,0,
00:00:02.62,-0.00629780953750014,-0.00365153211168945,0.003496726276353,0,0,
00:00:02.624,0.00299239670857787,0.000459343136753887,-0.00153374299407005,0,0,
00:00:02.628,-0.00645751878619194,-0.00221441057510674,0.0015123508637771,0,0,
00:00:02.632,0.0300439670681953,-0.00112068525049835,-0.00102588185109198,0,0,
00:00:02.636,-0.00850102957338095,0.000547328323591501,0.00175576913170516,0,0,
00:00:02.64,-0.013845500536263,0.00139207672327757,0.000643911713268608,0,0,
00:00:02.644,0.0137297343462706,0.00956130772829056,-0.00706816371530294,0,0,
00:00:02.648,0.0118799107149243,-0.00731210689991713,0.00452655367553234,0,0,
00:00:02.652,-0.0314241349697113,-0.0232677012681961,0.0204870570451021,0,0,
00:00:02.656,-0.046698272228241,0.0187708903104067,-0.0197295043617487,0,0,
00:00:02.66,0.0278292298316956,0.0182779375463724,-0.0176280289888382,0,0,
00:00:02.664,0.0566639937460423,-0.0102226817980409,0.00943484529852867,0,0,
00:00:02.668,-0.0319350585341454,0.000510908081196249,0.00459751999005675,0,0,
00:00:02.672,-0.0359898135066032,-0.00150832161307335,0.00160349160432816,0,0,
00:00:02.676,0.0340709127485752,-0.0144361099228263,0.0107477502897382,0,0,
00:00:02.68,0.0455055497586727,0.00608973391354084,-0.00556789245456457,0,0,
00:00:02.684,0.00443160068243742,0.000450914812972769,0.000585634028539062,0,0,
00:00:02.688,-0.0371088534593582,0.00144447258207947,0.000970776716712862,0,0,
00:00:02.692,-0.0675872340798378,0.00464261090382934,-0.00901345163583755,0,0,
00:00:02.696,0.0290896873921156,0.00432462617754936,-0.00245342589914799,0,0,
00:00:02.7,0.00706898374482989,0.00137868418823928,-0.00227274000644684,0,0,
00:00:02.704,0.0270745623856783,-0.018304830417037,0.0175922568887472,0,0,
00:00:02.708,0.0367366783320904,0.0125563750043511,-0.0144812474027276,0,0,
00:00:02.712,-0.00820206850767136,-0.00648170057684183,0.0112083805724978,0,0,
00:00:02.716,-0.0600572340190411,0.00306306523270905,-0.00480603007599711,0,0,
00:00:02.72,0.00237154006026685,0.00553791597485542,-0.00469553284347057,0,0,
00:00:02.724,0.0211840737611055,-0.00102264527231455,0.00160703784786165,0,0,
00:00:02.728,-0.00273408903740346,0.0054862042888999,-0.0036752438172698,0,0,
00:00:02.732,0.00666254665702581,-0.0161613337695599,0.0134558584541082,0,0,
00:00:02.736,0.0100367562845349,-0.0115261236205697,0.00714672729372978,0,0,
00:00:02.74,-0.00909521616995335,0.027189189568162,-0.0236096624284983,0,0,
00:00:02.744,-0.0273915212601423,-0.00702137174084783,0.00553376600146294,0,0,
00:00:02.748,0.0195131134241819,0.00960585009306669,-0.00570989307016134,0,0,
00:00:02.752,0.0197083726525307,-0.0151764014735818,0.0126679204404354,0,0,
00:00:02.756,0.00287901912815869,0.0106474608182907,-0.00799041707068682,0,0,
00:00:02.76,-0.0260569173842669,-0.0144498320296407,0.013226374052465,0,0,
00:00:02.764,0.0060682250186801,0.00822768360376358,-0.0118759330362082,0,0,
00:00:02.768,-0.00842191278934479,-0.00224957894533873,0.00359072675928473,0,0,
00:00:02.772,-0.00767926219850779,-0.00133314984850585,0.00534092029556632,0,0,
00:00:02.776,0.0349455550312996,0.00352551834657788,-0.00463111884891987,0,0,
00:00:02.78,0.0119121847674251,0.00268188305199146,-0.00664671277627349,0,0,
00:00:02.784,-0.0324062407016754,-0.00382235739380121,0.00692367646843195,0,0,
00:00:02.788,-0.035057108849287,0.0109227057546377,-0.0111151039600372,0,0,
00:00:02.792,0.0320332832634449,-0.0146190114319324,0.0117836222052574,0,0,
00:00:02.796,0.0285318791866302,0.00471512833610177,-0.00306852092035115,0,0,
00:00:02.8,-0.0403229370713234,-3.39343059749808E-05,0.00184275256469846,0,0,
00:00:02.804,0.0336108133196831,-0.00294855702668428,0.00557940592989326,0,0,
00:00:02.808,0.00553726125508547,0.00586437759920955,-0.00837241671979427,0,0,
00:00:02.812,-0.0318985246121883,-0.00188629096373916,-0.00067082024179399,0,0,
00:00:02.816,-0.000339646270731464,-0.008664277382195,0.00779009005054832,0,0,
00:00:02.82,0.02267293818295,0.0135366544127464,-0.0129265058785677,0,0,
00:00:02.824,-0.03051364608109,-0.0063049178570509,0.00541850132867694,0,0,
00:00:02.828,0.0283703338354826,-0.000786088639870286,0.00372665887698531,0,0,
00:00:02.832,0.0137787293642759,0.00720416661351919,-0.00310716987587512,0,0,
00:00:02.836,-0.0218275636434555,-0.00919297058135271,0.00724386563524604,0,0,
00:00:02.84,-0.0459485799074173,-0.00697483867406845,0.00408139498904347,0,0,
00:00:02.844,0.0403088219463825,0.0125361597165465,-0.0141305830329657,0,0,
00:00:02.848,0.00922541413456202,0.0054742069914937,-0.00547566683962941,0,0,
00:00:02.852,0.00914100091904402,-0.00159197731409222,0.00251828762702644,0,0,
00:00:02.856,0.0164893437176943,-0.0067676305770874,0.0057254577986896,0,0,
00:00:02.86,-0.0122853377833962,-0.0082982312887907,0.0129693178460002,0,0,
00:00:02.864,-0.0495975874364376,0.00387889542616904,-0.0041209114715457,0,0,
00:00:02.868,-0.00292108417488635,0.00984032172709703,-0.0115735027939081,0,0,
00:00:02.872,0.0113073280081153,-0.00504360953345895,0.00365541270002723,0,0,
00:00:02.876,0.0515501089394093,0.000582010194193572,-0.00103789404965937,0,0,
00:00:02.88,0.0059835878200829,0.00521544180810452,-0.00491675175726414,0,0,
00:00:02.884,-0.0215610526502132,-0.00600965600460768,0.00660317717120051,0,0,
00:00:02.888,-0.00803700461983681,-0.00626588193699718,0.00468184193596244,0,0,
00:00:02.892,-0.0369803197681904,0.00846496876329184,-0.00420598918572068,0,0,
00:00:02.896,0.0376376658678055,0.000657463271636516,-0.00104554556310177,0,0,
00:00:02.9,-0.0450628697872162,0.000326784589560702,-0.00198030960746109,0,0,
00:00:02.904,0.0263774823397398,-0.0117751164361835,0.00849223230034113,0,0,
00:00:02.908,0.0530270077288151,0.009966054931283,-0.00620661722496152,0,0,
00:00:02.912,-0.0466015189886093,-0.00132060586474836,-0.000705351470969617,0,0,
00:00:02.916,0.0244217589497566,0.00912300497293472,-0.00594172812998295,0,0,
00:00:02.92,0.0285678766667843,-0.00689585180953145,0.00391133036464453,0,0,
00:00:02.924,-0.0423615612089634,-0.00213698227889836,0.00261449720710516,0,0,
00:00:02.928,-0.0975378006696701,-0.00927395932376385,0.0122775454074144,0,0,
00:00:02.932,0.0758788287639618,0.0136304767802358,-0.0173388887196779,0,0,
00:00:02.936,0.0739820972084999,-0.00765726203098893,0.00982610043138266,0,0,
00:00:02.94,-0.0361136943101883,0.00205428549088538,-0.00302476389333606,0,0,
00:00:02.944,-0.0819737464189529,0.00528789777308702,-0.00626435922458768,0,0,
00:00:02.948,0.0959500223398209,0.00548927066847682,-0.00559250405058265,0,0,
00:00:02.952,-0.0101473173126578,-0.0207886714488268,0.0213307067751884,0,0,
00:00:02.956,-0.0244018007069826,0.0155226606875658,-0.0148584553971887,0,0,
00:00:02.96,0.000603877298999578,-0.00934766791760921,0.00975771900266409,0,0,
00:00:02.964,-0.0159101653844118,0.0141537878662348,-0.0140994619578123,0,0,
00:00:02.968,0.0149657018482685,-0.00740877166390419,0.00721315108239651,0,0,
00:00:02.972,-0.0131593300029635,-0.00701098050922155,0.00674359407275915,0,0,
00:00:02.976,0.00975646730512381,0.00121061026584357,-0.00348530220799148,0,0,
00:00:02.98,0.001980533124879,0.00565605191513896,-0.00168014538940042,0,0,
00:00:02.984,0.00495721027255058,-0.00553283607587218,0.00522842397913337,0,0,
00:00:02.988,0.0179490689188242,0.0112564712762833,-0.0126442760229111,0,0,
00:00:02.992,-0.0156898070126772,-0.00815305393189192,0.00720560410991311,0,0,
00:00:02.996,-0.00138171878643334,0.00316057098098099,-0.00330701633356512,0,0,
00:00:03,-0.0145120229572058,0.00404121866449714,-0.00364198675379157,0,0,
00:00:03.004,-0.00653314590454102,-0.00332883908413351,0.00385776907205582,0,0,
00:00:03.008,0.0247094072401524,-0.00656371889635921,0.00692205317318439,0,0,
00:00:03.012,0.0161861814558506,-0.00664403662085533,0.00673553021624684,0,0,
00:00:03.016,-0.0383881628513336,0.00156992534175515,-0.00168120057787746,0,0,
00:00:03.02,0.0238404367119074,0.0169826876372099,-0.0171684082597494,0,0,
00:00:03.024,-0.0163562297821045,-0.00149937951937318,0.0013482952490449,0,0,
00:00:03.028,-0.0473074428737164,0.000965951301623136,-0.00103248562663794,0,0,
00:00:03.032,0.0731727108359337,-0.0153910890221596,0.0133266216143966,0,0,
00:00:03.036,0.0218048263341188,0.011027367785573,-0.00692430883646011,0,0,
00:00:03.04,-0.0253275632858276,-0.00830888841301203,0.0080290362238884,0,0,
00:00:03.044,-0.0223305951803923,0.00862210430204868,-0.0100557478144765,0,0,
00:00:03.048,0.00625581992790103,-0.00619908841326833,0.005184315610677,0,0,
00:00:03.052,0.0021930686198175,0.000832490040920675,-0.00102994276676327,0,0,
00:00:03.056,0.00374254933558404,0.00643260171636939,-0.00605295784771442,0,0,
00:00:03.06,-0.0445836931467056,-0.00679721869528294,0.00733332987874746,0,0,
00:00:03.064,0.0417514480650425,0.00268195034004748,-0.00230387505143881,0,0,
00:00:03.068,-0.0289982780814171,-0.00197314308024943,0.00208323821425438,0,0,
00:00:03.072,0.0359039641916752,0.00353519967757165,-0.00363653199747205,0,0,
00:00:03.076,0.0139609929174185,-0.000661339377984405,0.000476224959129468,0,0,
00:00:03.08,0.013162586838007,-0.00768701266497374,0.00753081496804953,0,0,
00:00:03.084,-0.00420380663126707,0.0134072741493583,-0.0134800709784031,0,0,
00:00:03.088,-0.0494915246963501,-0.00918047223240137,0.00711175985634327,0,0,
00:00:03.092,-0.0291290804743767,0.00246839923784137,0.00163341860752553,0,0,
00:00:03.096,0.0181593149900436,0.00233063893392682,-0.00260944222100079,0,0,
00:00:03.1,0.0381459295749664,0.00165805849246681,-0.00308976485393941,0,0,
00:00:03.104,0.00973566062748432,-0.0185137148946524,0.0154247861355543,0,0,
00:00:03.108,-0.00113313365727663,0.0186431966722012,-0.0147888027131557,0,0,
00:00:03.112,-0.0197815764695406,-0.00560228247195482,0.00564855663105845,0,0,
00:00:03.116,0.00775237428024411,0.00590829271823168,-0.00683772563934326,0,0,
00:00:03.12,-0.0328864566981792,-0.00206979550421238,0.00142752658575773,0,0,
00:00:03.124,0.0171965435147285,-0.00535372830927372,0.00527858175337315,0,0,
00:00:03.128,0.0214345473796129,0.00443350709974766,-0.00413783406838775,0,0,
00:00:03.132,-0.0186700113117695,-0.00421330472454429,0.00457721529528499,0,0,
00:00:03.136,0.0397018156945705,-0.00618204241618514,0.00640868488699198,0,0,
00:00:03.14,0.00567116122692823,0.0117253558710217,-0.0116901053115726,0,0,
00:00:03.144,-0.0789361447095871,0.00661433394998312,-0.00671375077217817,0,0,
00:00:03.148,0.00253833644092083,-0.0123290922492743,0.0121899386867881,0,0,
00:00:03.152,0.0418518073856831,0.00161232613027096,-0.00171652773860842,0,0,
00:00:03.156,0.00193814025260508,-0.00149515538942069,0.00145557220093906,0,0,
00:00:03.16,-0.00260968552902341,0.0104351555928588,-0.0104201091453433,0,0,
00:00:03.164,0.0110422968864441,-0.0124256908893585,0.0124662080779672,0,0,
00:00:03.168,-0.00355426943860948,-0.0107659669592977,0.0108039993792772,0,0,
00:00:03.172,-0.0257636718451977,0.0216489546000957,-0.021628687158227,0,0,
00:00:03.176,0.0104985451325774,0.0094863697886467,-0.00948518142104149,0,0,
00:00:03.18,0.00867521297186613,-0.0147737246006727,0.0126874735578895,0,0,
00:00:03.184,-0.00672584911808372,-0.0127713652327657,0.0147339003160596,0,0,
00:00:03.188,0.00260978168807924,0.0159999001771212,-0.0122907245531678,0,0,
00:00:03.192,-0.0121494447812438,-0.00633121049031615,0.00453041540458798,0,0,
00:00:03.196,0.013720266520977,-0.000665902567561716,-0.00181671918835491,0,0,
00:00:03.2,0.0243479441851377,0.00581538770347834,-0.00701609952375293,0,0,
00:00:03.204,-0.0184579342603683,-0.00637668976560235,0.00659217406064272,0,0,
00:00:03.208,-0.0308778863400221,-0.00477798888459802,0.00572546711191535,0,0,
00:00:03.212,0.00874736532568932,0.0190498474985361,-0.0181184858083725,0,0,
00:00:03.216,0.0280792098492384,-0.0119037879630923,0.0103174671530724,0,0,
00:00:03.22,-0.00108080054633319,0.00820832047611475,-0.00415701046586037,0,0,
00:00:03.224,-0.0367921441793442,-0.00800075847655535,0.00737039418891072,0,0,
00:00:03.228,0.0242480561137199,-0.00596513925120234,0.00415153615176678,0,0,
00:00:03.232,0.0194795951247215,0.0084309596568346,-0.00968192424625158,0,0,
00:00:03.236,-0.000190665887203068,-0.00399390747770667,0.00374500453472137,0,0,
00:00:03.24,-0.039435476064682,-0.00864091981202364,0.00909904856234789,0,0,
00:00:03.244,0.0104999886825681,0.0177959185093641,-0.0171390529721975,0,0,
00:00:03.248,0.014621689915657,-0.00376189220696688,0.00423361407592893,0,0,
00:00:03.252,0.00261505995877087,0.00102574692573398,-0.000878045801073313,0,0,
00:00:03.256,-0.0289226435124874,-0.00289332307875156,0.00278069381602108,0,0,
00:00:03.26,0.0248762108385563,-0.0027238093316555,0.00250366399995983,0,0,
00:00:03.264,0.0171635951846838,-0.00310416240245104,0.00291410693898797,0,0,
00:00:03.268,-0.0232545174658298,0.000410759559599683,-0.000502182170748711,0,0,
00:00:03.272,-0.00200312514789402,0.006884157191962,-0.00687880534678698,0,0,
00:00:03.276,0.00528903491795063,0.000895895005669445,-0.000836269115097821,0,0,
00:00:03.28,-0.00385624007321894,-0.00181072321720421,0.00187649729195982,0,0,
00:00:03.284,-0.00369084673002362,0.00620056875050068,-0.00615942943841219,0,0,
00:00:03.288,0.0143230827525258,-0.0153060490265489,0.0153151256963611,0,0,
00:00:03.292,-0.00909226108342409,-0.00279210857115686,0.00277854432351887,0,0,
00:00:03.296,-0.00794484559446573,0.00472755264490843,-0.00474852742627263,0,0,
00:00:03.3,0.01216478087008,0.0103369206190109,-0.0103532169014215,0,0,
00:00:03.304,0.00979295931756496,-0.00223264913074672,0.00222608866170049,0,0,
00:00:03.308,-0.00321260234341025,0.00951587408781052,-0.00951392203569412,0,0,
00:00:03.312,-0.0140528166666627,-0.0145973367616534,0.014603428542614,0,0,
00:00:03.316,0.010176882147789,0.00135909859091043,-0.00135320227127522,0,0,
00:00:03.32,-0.00274182041175663,-0.00203108345158398,0.00203433260321617,0,0,
00:00:03.324,-0.0245535168796778,0.00141957157757133,-0.00141926610376686,0,0,
00:00:03.328,-0.00844703335314989,-0.0111235352233052,0.0111219882965088,0,0,
00:00:03.332,0.0410402901470661,0.0205748304724693,-0.0205767974257469,0,0,
00:00:03.336,0.0164245627820492,-0.00656578503549099,0.00656441831961274,0,0,
00:00:03.34,-0.00172812200617045,0.00411499803885818,-0.00411542691290379,0,0,
00:00:03.344,-0.00886964425444603,-0.00758192222565413,0.00758222583681345,0,0,
00:00:03.348,-0.0594331845641136,0.00225612171925604,-0.0022555198520422,0,0,
00:00:03.352,0.0156251918524504,0.00191223155707121,-0.00191171397455037,0,0,
00:00:03.356,0.0309683568775654,-0.000485212716739625,0.000485458731418476,0,0,
00:00:03.36,0.0100800292566419,-0.0142068360000849,0.0142068173736334,0,0,
00:00:03.364,0.00649636331945658,0.0186587255448103,-0.0186588894575834,0,0,
00:00:03.368,-0.0162972696125507,-0.00682158581912518,0.00682140560820699,0,0,
00:00:03.372,-0.00417503202334046,0.00910995900630951,-0.00911007076501846,0,0,
00:00:03.376,-0.00384128699079156,-0.0145786060020328,0.0145785817876458,0,0,
00:00:03.38,-0.00755870109423995,0.00576180731877685,-0.00576176913455129,0,0,
00:00:03.384,-0.0012259348295629,0.00101223459932953,-0.00101217685732991,0,0,
00:00:03.388,0.0214091837406158,-0.000387249805498868,0.000387294188840315,0,0,
00:00:03.392,-0.0111905308440328,0.00169465038925409,-0.00377041287720203,0,0,
00:00:03.396,0.01656199619174,-0.00200950121507049,0.00606059795245528,0,0,
00:00:03.4,0.0091755073517561,-0.0097495075315237,0.00941621139645576,0,0,
00:00:03.404,-0.0253594610840082,0.0162438843399286,-0.0177089050412178,0,0,
00:00:03.408,-0.0315795913338661,-0.00661113113164902,0.00559134874492884,0,0,
00:00:03.412,0.00985118933022022,-0.0010050357086584,0.000820137036498636,0,0,
00:00:03.416,0.0323821119964123,0.00750502524897456,-0.00710795214399695,0,0,
00:00:03.42,0.0185146741569042,-0.000466403173049912,0.00101530563551933,0,0,
00:00:03.424,-0.0119249392300844,-0.00223916838876903,0.00262182764708996,0,0,
00:00:03.428,-0.0178809594362974,-0.0122535713016987,0.0123614808544517,0,0,
00:00:03.432,0.00801311805844307,-0.00364726549014449,0.00354072777554393,0,0,
00:00:03.436,-0.0205434896051884,0.0175583735108376,-0.0177482236176729,0,0,
00:00:03.44,0.00339217809960246,-0.0102002415806055,0.0100416177883744,0,0,
00:00:03.444,0.0118939885869622,0.0140276439487934,-0.0141004752367735,0,0,
00:00:03.448,0.017592940479517,-0.0067612724378705,0.00676972046494484,0,0,
00:00:03.452,-0.0137220090255141,-0.000160130337462761,0.000212459752219729,0,0,
00:00:03.456,-0.0225899554789066,-0.00254136836156249,0.00259690242819488,0,0,
00:00:03.46,0.00365374051034451,-0.0058209216222167,0.00585449812933803,0,0,
00:00:03.464,0.0256579630076885,0.0122041665017605,-0.012197838164866,0,0,
00:00:03.468,0.0154294157400727,-0.00776313850656152,0.00775082176551223,0,0,
00:00:03.472,-0.0284994598478079,-0.00523526733741164,0.00521734124049544,0,0,
00:00:03.476,-0.00907929893583059,0.00973811466246843,-0.00975161883980036,0,0,
00:00:03.48,0.0176764819771051,-0.000925077649299055,0.000919960497412831,0,0,
00:00:03.484,-0.000461252202512696,0.00200488767586648,-0.00200290139764547,0,0,
00:00:03.488,-0.0119429398328066,-0.0066383290104568,0.00664361612871289,0,0,
00:00:03.492,-0.000284854002529755,0.00146116700489074,-0.00145622016862035,0,0,
00:00:03.496,0.0166485086083412,0.00653104623779655,-0.00652842363342643,0,0,
00:00:03.5,-0.0203236918896437,-0.00514999311417341,0.00515013048425317,0,0,
00:00:03.504,0.00170813396107405,-0.00187857355922461,0.00187719787936658,0,0,
00:00:03.508,0.0145549727603793,0.000175968423718587,-0.000177637775777839,0,0,
00:00:03.512,0.0231044180691242,0.00308236898854375,-0.00308349309489131,0,0,
00:00:03.516,-0.0398165956139565,0.00104653695598245,-0.00104685931000859,0,0,
00:00:03.52,-0.0257672816514969,-0.00522406585514545,0.00522435083985329,0,0,
00:00:03.524,0.0387890599668026,0.00013904988009017,-0.000138532122946344,0,0,
00:00:03.528,0.022140109911561,0.00201628310605884,-0.00201585167087615,0,0,
00:00:03.532,-0.00364368734881282,0.00172449729871005,-0.00172430160455406,0,0,
00:00:03.536,-0.0144978798925877,-0.0035359631292522,0.00353593681938946,0,0,
00:00:03.54,-0.023225637152791,0.00982212647795677,-0.00982227176427841,0,0,
00:00:03.544,-0.00588188413530588,-0.00757236732169986,0.0075722155161202,0,0,
00:00:03.548,0.017788527533412,0.000768824480473995,-0.000768915342632681,0,0,
00:00:03.552,0.0164770651608706,0.000838798412587494,-0.000838814477901906,0,0,
00:00:03.556,0.00152080785483122,-0.00276456773281097,0.00276460242457688,0,0,
00:00:03.56,-0.0104632405564189,-0.0118364607915282,0.0118365101516247,0,0,
00:00:03.564,0.00292229652404785,0.02084088511765,-0.020840847864747,0,0,
00:00:03.568,-0.000632064649835229,-0.00420793145895004,0.00420794542878866,0,0,
00:00:03.572,-0.0295945424586535,0.00222060736268759,-0.00222061318345368,0,0,
00:00:03.576,0.000253200210863724,-0.0113514335826039,0.0113514186814427,0,0,
00:00:03.58,0.0416914224624634,0.00813669990748167,-0.00813671387732029,0,0,
00:00:03.584,-0.00041196434176527,-0.00164991954807192,0.00164991244673729,0,0,
00:00:03.588,-0.00295886863023043,-0.00470639299601316,0.00678217317909002,0,0,
00:00:03.592,-0.0246089845895767,0.00541105074808002,-0.00946214981377125,0,0,
00:00:03.596,0.0218806862831116,-0.00336807174608111,0.00370135577395558,0,0,
00:00:03.6,-0.0117535628378391,-0.00579988630488515,0.00726489396765828,0,0,
00:00:03.604,-0.0209675058722496,0.0157826133072376,-0.014762838371098,0,0,
00:00:03.608,0.00943756196647882,-0.00807961076498032,0.00826450809836388,0,0,
00:00:03.612,0.0251139886677265,0.00425729947164655,-0.00465436931699514,0,0,
00:00:03.616,0.000521283713169396,-0.000649814435746521,0.0021766962017864,0,0,
00:00:03.62,-0.00390475010499358,-0.00304172723554075,0.000683748687151819,0,0,
00:00:03.624,-0.013384697958827,-0.0172450710088015,0.0134193385019898,0,0,
00:00:03.628,-0.0065183499827981,0.0211029499769211,-0.0191981270909309,0,0,
00:00:03.632,0.00817571394145489,-0.00410935981199145,0.00678398692980409,0,0,
00:00:03.636,0.000111932553409133,0.00604755943641067,-0.0046842647716403,0,0,
00:00:03.64,-0.00363588309846818,-0.00485239317640662,0.00471305288374424,0,0,
00:00:03.644,0.0141319269314408,-0.00216274568811059,0.00120833201799542,0,0,
00:00:03.648,0.00559436390176415,0.00355254695750773,-0.00453642895445228,0,0,
00:00:03.652,-0.0174281150102615,-0.00578739959746599,0.00524130184203386,0,0,
00:00:03.656,-0.011633544228971,-0.00699648447334766,0.0090373158454895,0,0,
00:00:03.66,0.0170124545693398,0.0118467137217522,-0.0156077593564987,0,0,
00:00:03.664,0.000385996652767062,0.00724732084199786,-0.00655325315892696,0,0,
00:00:03.668,0.00416537374258041,-0.013761755079031,0.015476138330996,0,0,
00:00:03.672,0.0019067469984293,0.0101687237620354,-0.00907106325030327,0,0,
00:00:03.676,-0.00570414774119854,-0.00783546268939972,0.00796470046043396,0,0,
00:00:03.68,-0.00576050113886595,-0.00290943426080048,0.00240251678042114,0,0,
00:00:03.684,-0.00865366775542498,0.00578546756878495,-0.00435298122465611,0,0,
00:00:03.688,0.00269970251247287,0.00558811333030462,-0.0100667225196958,0,0,
00:00:03.692,0.0114847999066114,-0.0108325071632862,0.0110612437129021,0,0,
00:00:03.696,0.00216180365532637,0.00356523622758687,-0.00196358980610967,0,0,
00:00:03.7,-0.00309353624470532,0.00387955945916474,-0.00263713207095861,0,0,
00:00:03.704,0.00661542546004057,-0.00783116556704044,0.00819497741758823,0,0,
00:00:03.708,-0.00133000919595361,0.00593873765319586,-0.00625872099772096,0,0,
00:00:03.712,-0.00723485508933663,0.0042449003085494,-0.00480919657275081,0,0,
00:00:03.716,-0.000559376960154623,-0.000577810336835682,0.0022080868948251,0,0,
00:00:03.72,0.00404011225327849,-0.00539964158087969,0.00117700954433531,0,0,
00:00:03.724,-0.016937505453825,-0.00538125354796648,0.00578430248424411,0,0,
00:00:03.728,-0.0104840137064457,-0.00416480330750346,0.00581437163054943,0,0,
00:00:03.732,0.0274851210415363,0.0159131642431021,-0.0126435998827219,0,0,
00:00:03.736,0.0161579474806786,0.0077067231759429,-0.00940345320850611,0,0,
00:00:03.74,-0.000663036538753659,-0.0160723272711039,0.0119640910997987,0,0,
00:00:03.744,-0.0123831955716014,-0.00920772925019264,0.010410032235086,0,0,
00:00:03.748,-0.00889380089938641,0.01675109192729,-0.0147072747349739,0,0,
00:00:03.752,0.00401847995817661,-0.00175876368302852,0.00489145936444402,0,0,
00:00:03.756,-0.0140508096665144,-0.00425438489764929,8.56970145832747E-05,0,0,
00:00:03.76,-0.0124501073732972,0.0067680305801332,-0.00718138087540865,0,0,
00:00:03.764,0.0192216653376818,-0.00886779744178057,0.00957781821489334,0,0,
00:00:03.768,0.0300231240689754,-0.00466630049049854,0.00735930260270834,0,0,
00:00:03.772,-0.0191582553088665,0.0105541748926044,-0.0123473750427365,0,0,
00:00:03.776,-0.00935985706746578,0.00577746704220772,-0.00964904390275478,0,0,
00:00:03.78,0.0163150895386934,-0.00386003730818629,0.00539738591760397,0,0,
00:00:03.784,0.00265402835793793,-0.0179783869534731,0.0202730726450682,0,0,
00:00:03.788,-0.0169584769755602,0.0128530832007527,-0.00962571613490582,0,0,
00:00:03.792,-0.0152488201856613,0.00376500096172094,-0.00797082111239433,0,0,
00:00:03.796,-0.00214927061460912,-0.000458214286481962,-5.33913807885256E-05,0,0,
00:00:03.8,0.0183671489357948,-0.00582765508443117,0.00852162018418312,0,0,
00:00:03.804,0.015277249738574,0.00884199701249599,-0.0123245492577553,0,0,
00:00:03.808,-0.000132429820951074,-0.00937314797192812,0.0098860040307045,0,0,
00:00:03.812,-0.00960292015224695,0.00568273290991783,-0.0022701914422214,0,0,
00:00:03.816,-0.00366439344361424,-0.000774504733271897,-0.00248680473305285,0,0,
00:00:03.82,-0.0272232014685869,0.00228246441110969,0.000142238961416297,0,0,
00:00:03.824,0.0161411836743355,-0.0172783993184567,0.0142481187358499,0,0,
00:00:03.828,0.0276299007236958,0.0192465130239725,-0.0183901935815811,0,0,
00:00:03.832,0.0102019142359495,-0.00366840930655599,0.00710291415452957,0,0,
00:00:03.836,-0.0158523079007864,-0.000736113870516419,-0.00272346031852067,0,0,
00:00:03.84,-0.0213893707841635,0.00182524707634002,0.000362064398359507,0,0,
00:00:03.844,-0.0123490458354354,-0.00238589383661747,-0.000793540151789784,0,0,
00:00:03.848,0.0148824984207749,0.00203702645376325,-0.00120703014545143,0,0,
00:00:03.852,0.0095201563090086,-0.0106657817959785,0.0120856575667858,0,0,
00:00:03.856,0.00600264640524983,0.00550581095740199,-0.00482598226517439,0,0,
00:00:03.86,-0.00649796286597848,0.00376926781609654,-0.00392372533679008,0,0,
00:00:03.864,-0.00642209034413099,-0.00688158674165607,0.00631477124989033,0,0,
00:00:03.868,0.016786428168416,0.0199623126536608,-0.018418163061142,0,0,
00:00:03.872,-0.00740428827702999,-0.0147871905937791,0.0104806795716286,0,0,
00:00:03.876,-0.00666177691891789,-0.00236056256107986,0.00272665196098387,0,0,
00:00:03.88,0.00359230162575841,0.00986403971910477,-0.0082027493044734,0,0,
00:00:03.884,-0.00290630199015141,-0.010403442196548,0.0116350213065743,0,0,
00:00:03.888,-0.0126553848385811,-0.00616513891145587,0.00648168614134192,0,0,
00:00:03.892,-0.00857933331280947,0.00833379290997982,-0.0066262511536479,0,0,
00:00:03.896,0.0362000800669193,0.00860789138823748,-0.0132514266297221,0,0,
00:00:03.9,0.0140090240165591,-0.0115495175123215,0.0114329820498824,0,0,
00:00:03.904,-0.0139622017741203,0.00726047577336431,-0.00595554523169994,0,0,
00:00:03.908,-0.0207960400730371,0.000266220129560679,0.000839069311041385,0,0,
00:00:03.912,-0.00238563329912722,-0.00223941588774323,0.00262036477215588,0,0,
00:00:03.916,0.00403958791866899,4.84268566651735E-05,0.00180835579521954,0,0,
00:00:03.92,0.00653851544484496,-0.000675601535476744,-0.00175695167854428,0,0,
00:00:03.924,0.00474944896996021,0.00296698440797627,-0.00706552620977163,0,0,
00:00:03.928,-0.0050662592984736,-0.015178931877017,0.0168179590255022,0,0,
00:00:03.932,-0.014541108161211,-0.00387951359152794,0.00848613493144512,0,0,
00:00:03.936,-0.00929668731987476,0.0224200170487165,-0.0230406764894724,0,0,
00:00:03.94,0.0322097837924957,0.00759050482884049,-0.0113725708797574,0,0,
00:00:03.944,0.0121928323060274,-0.0122507698833942,0.0131868626922369,0,0,
00:00:03.948,-0.00441884249448776,0.00803959742188454,-0.00440014479681849,0,0,
00:00:03.952,-0.00508169922977686,-0.0140276644378901,0.0127295469865203,0,0,
00:00:03.956,-0.0177298150956631,-0.00638349168002605,0.00240336288698018,0,0,
00:00:03.96,-0.00918772350996733,0.00820905435830355,-0.00709512690082192,0,0,
00:00:03.964,0.00836440455168486,-6.82965182932094E-05,0.00403409963473678,0,0,
00:00:03.968,0.00632160762324929,-0.00387628492899239,0.000777585199102759,0,0,
00:00:03.972,0.000992660177871585,0.016055541113019,-0.0158566944301128,0,0,
00:00:03.976,0.000220584581256844,-0.010925754904747,0.0116934133693576,0,0,
00:00:03.98,0.000392645335523412,0.00314674340188503,-0.00281149568036199,0,0,
00:00:03.984,0.00656962674111128,0.0022775640245527,-0.00244108168408275,0,0,
00:00:03.988,0.0065485630184412,0.00273723062127829,-0.00103939138352871,0,0,
00:00:03.992,-0.0295443274080753,-0.0175205878913403,0.0131577020511031,0,0,
00:00:03.996,-0.0218237098306417,0.00195281591732055,-0.00173419225029647,0,0,
00:00:04,0.0388788692653179,0.013201754540205,-0.0116715580224991,0,0,
00:00:04.004,0.0252783764153719,-0.00515396986156702,0.00632427074015141,0,0,
00:00:04.008,-0.00395085196942091,-0.00612772582098842,0.00645223679021001,0,0,
00:00:04.012,-0.0130529953166842,0.0173918399959803,-0.0156382769346237,0,0,
00:00:04.016,-0.0131049696356058,-0.0107542723417282,0.00823543500155211,0,0,
00:00:04.02,-0.00922331493347883,0.0040964582003653,-0.00823435559868813,0,0,
00:00:04.024,-0.00444938102737069,-0.00720551330596209,0.00884950999170542,0,0,
00:00:04.028,0.00764137413352728,-0.00602414039894938,0.00858372543007135,0,0,
00:00:04.032,0.018356341868639,0.0097041167318821,-0.00831915810704231,0,0,
00:00:04.036,0.00465418305248022,0.00403793295845389,-0.00200820947065949,0,0,
00:00:04.04,-0.0135584678500891,-0.011290542781353,0.00638054218143225,0,0,
00:00:04.044,0.00192076875828207,0.0131099121645093,-0.0116287916898727,0,0,
00:00:04.048,-0.00930909067392349,-0.00859120301902294,0.00546781858429313,0,0,
00:00:04.052,-0.00269119464792311,0.00493634073063731,-0.00364077091217041,0,0,
00:00:04.056,0.00246631586924195,0.000315159442834556,0.0015936060808599,0,0,
00:00:04.06,0.0190781001001596,-0.00236407574266195,0.00540048256516457,0,0,
00:00:04.064,0.000444710371084511,-0.0149597907438874,0.0107858907431364,0,0,
00:00:04.068,-0.00495756883174181,0.0210500732064247,-0.0193389281630516,0,0,
00:00:04.072,-0.0067503172904253,-0.0100992936640978,0.00681004347279668,0,0,
00:00:04.076,-0.00478501478210092,0.00595295568928123,-0.00290162512101233,0,0,
00:00:04.08,-0.0137612037360668,-0.00265942281112075,0.000250098441028968,0,0,
00:00:04.084,0.013359728269279,-0.00217623892240226,0.00542836729437113,0,0,
00:00:04.088,0.0145678305998445,0.0105795646086335,-0.0111903063952923,0,0,
00:00:04.092,-0.00490230834111571,-0.00832213647663593,0.00502175651490688,0,0,
00:00:04.096,-0.00384961580857635,-0.0150513155385852,0.0164291094988585,0,0,
00:00:04.1,0.00870692357420921,0.0179703552275896,-0.0141271706670523,0,0,
00:00:04.104,-0.00988959707319736,-0.00357063068076968,0.00225190562196076,0,0,
00:00:04.108,0.000779174675699323,0.0111809046939015,-0.0132205216214061,0,0,
00:00:04.112,-0.0102338967844844,-0.0146756786853075,0.0116006201133132,0,0,
00:00:04.116,0.00192979245912284,0.00230726669542491,0.00191555940546095,0,0,
00:00:04.12,0.0101830903440714,0.00361018138937652,-0.00524925393983722,0,0,
00:00:04.124,-0.0219419877976179,-0.00150644173845649,0.00276442221365869,0,0,
00:00:04.128,0.0304909460246563,0.00230595306493342,-0.00130437756888568,0,0,
00:00:04.132,0.013021825812757,-0.00658726645633578,0.00863497704267502,0,0,
00:00:04.136,-0.0106291146948934,-0.00486402725800872,0.00218664947897196,0,0,
00:00:04.14,-0.0148578053340316,0.012474643997848,-0.0169608350843191,0,0,
00:00:04.144,-0.0109117142856121,-0.00831033568829298,0.0117496624588966,0,0,
00:00:04.148,-0.00501797627657652,0.0131091941148043,-0.0126207023859024,0,0,
00:00:04.152,0.00581989018246531,-0.00971357431262732,0.00952519848942757,0,0,
00:00:04.156,0.0104306358844042,0.00385948643088341,-0.00393901951611042,0,0,
00:00:04.16,0.0123092280700803,-0.00436805514618754,0.00240562995895743,0,0,
00:00:04.164,0.00706609291955829,0.00160277262330055,0.000539510685484856,0,0,
00:00:04.168,-0.0111807323992252,-0.00928231980651617,0.0110201649367809,0,0,
00:00:04.172,0.00140185351483524,0.019775377586484,-0.0175346583127975,0,0,
00:00:04.176,-0.0120678497478366,-0.0132192075252533,0.0103156296536326,0,0,
00:00:04.18,-0.0224499013274908,0.00375399738550186,-0.00859937537461519,0,0,
00:00:04.184,0.014097542501986,-0.00316253071650863,0.00633677886798978,0,0,
00:00:04.188,0.0190826784819365,0.000645694730337709,-0.00231682695448399,0,0,
00:00:04.192,-0.000776607834268361,0.00144643487874418,0.000405727856559679,0,0,
00:00:04.196,8.32755686133169E-05,0.000880598789080977,0.00288559193722904,0,0,
00:00:04.2,0.00222092471085489,6.14528617006727E-05,-0.00163520162459463,0,0,
00:00:04.204,-0.0028760745190084,-0.000449271581601352,-0.00389008200727403,0,0,
00:00:04.208,-0.0139659428969026,-0.00261070067062974,0.00555076310411096,0,0,
00:00:04.212,-0.00705341994762421,0.0037149612326175,-0.00595815153792501,0,0,
00:00:04.216,0.0294890757650137,0.00167953933123499,0.00172874436248094,0,0,
00:00:04.22,-0.0035775841679424,-0.00330957910045981,0.000688158208504319,0,0,
00:00:04.224,-0.0383355617523193,-0.0066221640445292,0.00943905860185623,0,0,
00:00:04.228,0.0122626256197691,0.00373457791283727,-0.00678044697269797,0,0,
00:00:04.232,0.035071924328804,0.0108084483072162,-0.00812937784940004,0,0,
00:00:04.236,0.003125608433038,-0.00816597882658243,0.00728239445015788,0,0,
00:00:04.24,-0.029019208624959,-0.00377898290753365,0.000507977441884577,0,0,
00:00:04.244,-0.00823587737977505,0.00280964514240623,-0.00123372871894389,0,0,
00:00:04.248,0.0240252427756786,0.00697846710681915,-0.00499735027551651,0,0,
00:00:04.252,-0.00440262584015727,-0.00314053264446557,0.00392890768125653,0,0,
00:00:04.256,-0.0081475367769599,-0.00828677508980036,0.00791667401790619,0,0,
00:00:04.26,-0.00322832213714719,0.00220297509804368,-0.0030705186072737,0,0,
00:00:04.264,0.0183909274637699,0.0101714804768562,-0.00883514434099197,0,0,
00:00:04.268,-0.0140719572082162,-0.00797457527369261,0.00568901374936104,0,0,
00:00:04.272,-0.0184830110520124,0.000958615040872246,-0.00250431941822171,0,0,
00:00:04.276,0.0090992683544755,-0.000589793082326651,0.000717156915925443,0,0,
00:00:04.28,0.024717990309,-0.0064011481590569,0.00546883139759302,0,0,
00:00:04.284,0.00673400377854705,0.0146837085485458,-0.00943337567150593,0,0,
00:00:04.288,-0.0159505158662796,-0.00646306807175279,0.00470768660306931,0,0,
00:00:04.292,-0.00617560185492039,-0.00369841395877302,0.00421691685914993,0,0,
00:00:04.296,0.00213519250974059,0.00835668481886387,-0.00605804985389113,0,0,
00:00:04.3,0.000305012334138155,-0.0100461877882481,0.00758331967517734,0,0,
00:00:04.304,-0.0205699056386948,0.00765465060248971,-0.0121447620913386,0,0,
00:00:04.308,0.0116813080385327,-0.00445887167006731,0.00567925069481134,0,0,
00:00:04.312,-0.00257839658297598,-0.00935913156718016,0.0137474816292524,0,0,
00:00:04.316,0.0255698170512915,0.0150353023782372,-0.0177101753652096,0,0,
00:00:04.32,0.0150042437016964,0.00825072545558214,-0.00781150860711932,0,0,
00:00:04.324,-0.0219909306615591,-0.0133753139525652,0.0141713470220566,0,0,
00:00:04.328,-0.0211976412683725,-0.0129911154508591,0.0152935339137912,0,0,
00:00:04.332,0.00545430788770318,0.0128782652318478,-0.0172353554517031,0,0,
00:00:04.336,0.0102739380672574,0.0138454241678119,-0.0139913354068995,0,0,
00:00:04.34,-0.0089180264621973,-0.0120647260919213,0.0152600109577179,0,0,
00:00:04.344,0.00308143626898527,-0.0135171208530664,0.0103913778439164,0,0,
00:00:04.348,0.0134513666853309,0.0182000938802958,-0.0175736229866743,0,0,
00:00:04.352,-0.00721013359725475,-0.00513253826647997,0.0063889604061842,0,0,
00:00:04.356,-0.00482166605070233,-0.00112728460226208,0.00383220403455198,0,0,
00:00:04.36,0.00314306677319109,0.00448231864720583,-0.00658119935542345,0,0,
00:00:04.364,-0.0190792046487331,-0.00553362909704447,0.00130455079488456,0,0,
00:00:04.368,0.0187311265617609,-0.00734202610328794,0.00864744186401367,0,0,
00:00:04.372,0.0143293375149369,0.0174899976700544,-0.0152527075260878,0,0,
00:00:04.376,-0.00180677394382656,-0.0116171641275287,0.0128388842567801,0,0,
00:00:04.38,-0.0149999903514981,0.00747534586116672,-0.00543931312859058,0,0,
00:00:04.384,2.91249598376453E-05,-0.00468559237197042,0.00195735320448875,0,0,
00:00:04.388,-0.00259930221363902,-0.0036220601759851,0.0011722669005394,0,0,
00:00:04.392,-0.00649781618267298,0.00651343399658799,-0.00715032964944839,0,0,
00:00:04.396,0.014233062043786,-0.0012436491670087,0.00204823957756162,0,0,
00:00:04.4,0.00794818624854088,-0.00845775846391916,0.00972134247422218,0,0,
00:00:04.404,-0.00429620034992695,0.00922105275094509,-0.0082903578877449,0,0,
00:00:04.408,-0.0218259170651436,0.0014982633292675,-0.00120567355770618,0,0,
00:00:04.412,0.0069891600869596,0.00246548699215055,-0.00269755837507546,0,0,
00:00:04.416,0.00651570223271847,-0.0142899043858051,0.0138374660164118,0,0,
00:00:04.42,0.00264447159133852,0.00558561831712723,-0.00597858522087336,0,0,
00:00:04.424,0.00175904599018395,0.00420403899624944,-0.00647158687934279,0,0,
00:00:04.428,0.00913782045245171,0.00342460977844894,-0.00144178909249604,0,0,
00:00:04.432,0.00423454865813255,0.00137257087044418,0.00246591120958328,0,0,
00:00:04.436,-0.019582437351346,-0.0113208405673504,0.0096576027572155,0,0,
00:00:04.44,-0.0160841755568981,-0.00698533374816179,0.00458607543259859,0,0,
00:00:04.444,0.0156088145449758,0.0175437387079,-0.0187285393476486,0,0,
00:00:04.448,0.0125044537708163,-0.00797956343740225,0.00816470850259066,0,0,
00:00:04.452,-0.000685626408085227,0.013792984187603,-0.0128898462280631,0,0,
00:00:04.456,-0.0204829219728708,-0.0150554152205586,0.0159533023834229,0,0,
00:00:04.46,0.00854986812919378,0.00370387779548764,-0.00322715751826763,0,0,
00:00:04.464,0.00946422386914492,-0.00265992758795619,0.000589215487707406,0,0,
00:00:04.468,-0.00399381015449762,-0.000957202049903572,0.00472428556531668,0,0,
00:00:04.472,-0.00584610970690846,0.0057430793531239,-0.00641270494088531,0,0,
00:00:04.476,-0.000415843940572813,0.000579193001613021,-0.00434465520083904,0,0,
00:00:04.48,0.00969585683196783,-0.00771401776000857,0.00860592070966959,0,0,
00:00:04.484,0.0103511773049831,0.0126609150320292,-0.0090703247115016,0,0,
00:00:04.488,-0.0148919634521008,-0.00790388416498899,0.00660650571808219,0,0,
00:00:04.492,-0.00456405011937022,4.61631425423548E-05,-0.00397154595702887,0,0,
00:00:04.496,-8.11313475423958E-06,-0.00141112285200506,0.00260341702960432,0,0,
00:00:04.5,-0.00462573580443859,0.00162760599050671,0.000329125003190711,0,0,
00:00:04.504,0.00761151732876897,-0.0116721456870437,0.0147353764623404,0,0,
00:00:04.508,-0.000203701725695282,0.019725875928998,-0.0218325927853584,0,0,
00:00:04.512,-0.00144809891935438,-0.00721321906894445,0.00278159906156361,0,0,
00:00:04.516,0.0185040328651667,0.00181996007449925,-0.000726857746485621,0,0,
00:00:04.52,-0.00833395589143038,0.00699937483295798,-0.00487726181745529,0,0,
00:00:04.524,-0.0148938875645399,-0.018013721331954,0.0192331038415432,0,0,
00:00:04.528,0.00366134010255337,0.00447778403759003,-0.00237385975196958,0,0,
00:00:04.532,0.00729175610467792,0.00191946502309293,-0.00456649111583829,0,0,
00:00:04.536,-0.00443894043564796,-0.00480117695406079,0.000330255425069481,0,0,
00:00:04.54,-0.0031660795211792,0.0111877275630832,-0.00983349978923798,0,0,
00:00:04.544,0.00691343052312732,0.00361093343235552,0.000897793099284172,0,0,
00:00:04.548,0.00102882832288742,-0.00476348865777254,0.00212793960236013,0,0,
00:00:04.552,-0.00421523582190275,-0.00494634406641126,0.00534660555422306,0,0,
00:00:04.556,-0.000551532779354602,-0.00208239024505019,0.00487854378297925,0,0,
00:00:04.56,-0.00177468487527221,0.00271769403479993,-0.00453469483181834,0,0,
00:00:04.564,0.00017424336692784,0.00823504943400621,-0.0102193290367723,0,0,
00:00:04.568,-0.00455408776178956,-0.0181757044047117,0.017516978085041,0,0,
00:00:04.572,0.00771657237783074,0.00397270498797297,-0.00345731270499527,0,0,
00:00:04.576,-0.00242087105289102,-4.39533505414147E-05,0.000999597366899252,0,0,
00:00:04.58,0.0166824031621218,0.0208786800503731,-0.0222002882510424,0,0,
00:00:04.584,-0.000398842850700021,-0.00354397110641003,0.00786982849240303,0,0,
00:00:04.588,-0.0199222508817911,-0.00475542666390538,0.00220001861453056,0,0,
00:00:04.592,-0.00594449369236827,-0.0117810145020485,0.0140255466103554,0,0,
00:00:04.596,0.0074765644967556,0.0019376213895157,-0.00360512337647378,0,0,
00:00:04.6,0.0128037752583623,0.00580671522766352,-0.00762233138084412,0,0,
00:00:04.604,-0.0103286746889353,-0.00649331696331501,0.00378654873929918,0,0,
00:00:04.608,-0.00696957902982831,-0.000170398765476421,0.0046726823784411,0,0,
00:00:04.612,0.0034015232231468,0.00967117492109537,-0.00911914464086294,0,0,
00:00:04.616,0.0162638947367668,-0.000251499732257798,-0.000485649157781154,0,0,
00:00:04.62,0.012577916495502,-0.00307522481307387,0.00235194782726467,0,0,
00:00:04.624,-0.0379748642444611,-0.00654963403940201,0.00626481417566538,0,0,
00:00:04.628,-0.020175002515316,0.00945939682424068,-0.00936016626656055,0,0,
00:00:04.632,0.0300876721739769,-0.00414593704044819,0.00440492574125528,0,0,
00:00:04.636,0.0238287709653378,0.000502252369187772,-0.000282116117887199,0,0,
00:00:04.64,-0.00285902549512684,-0.00798074994236231,0.00806982163339853,0,0,
00:00:04.644,-0.0110907647758722,0.0114501435309649,-0.0135593367740512,0,0,
00:00:04.648,-0.00276993727311492,-0.00449920911341906,0.00845595635473728,0,0,
00:00:04.652,-0.00100081809796393,0.00282435561530292,-0.00532444566488266,0,0,
00:00:04.656,-0.0156287215650082,-0.000827422714792192,0.00128718256019056,0,0,
00:00:04.66,-0.00389223219826818,0.000529808923602104,8.71294105309062E-05,0,0,
00:00:04.664,0.020393593236804,-0.0111946994438767,0.0132860150188208,0,0,
00:00:04.668,0.0181640274822712,0.016589317470789,-0.0210559163242579,0,0,
00:00:04.672,-0.0158714260905981,-0.00922596640884876,0.0111774876713753,0,0,
00:00:04.676,-0.0328896604478359,0.00191627931781113,-0.00474342470988631,0,0,
00:00:04.68,0.021130507811904,8.35638929856941E-05,0.00336704985238612,0,0,
00:00:04.684,0.0309272054582834,-0.000306783127598464,0.000166652651387267,0,0,
00:00:04.688,-0.0116656394675374,0.00400771573185921,-0.00481597939506173,0,0,
00:00:04.692,-0.033007699996233,-0.00801877956837416,0.00761762587353587,0,0,
00:00:04.696,0.0188803877681494,-0.00330022559501231,0.00340312975458801,0,0,
00:00:04.7,0.00946356356143951,0.0111849037930369,-0.0129250213503838,0,0,
00:00:04.704,-0.00231488002464175,0.00765699660405517,-0.00331529881805182,0,0,
00:00:04.708,-0.00512817595154047,-0.018896633759141,0.0165979508310556,0,0,
00:00:04.712,0.00282903108745813,0.00411871587857604,-0.00366843212395906,0,0,
00:00:04.716,-0.0106510296463966,0.00831879209727049,-0.00576383341103792,0,0,
00:00:04.72,0.000401049997890368,-0.00633938144892454,0.00422176066786051,0,0,
00:00:04.724,0.000493671919684857,0.000237560030655004,-0.00239861849695444,0,0,
00:00:04.728,0.00817250646650791,0.00567432027310133,-0.00633678957819939,0,0,
00:00:04.732,0.0113202771171927,-0.00732457591220737,0.0079544335603714,0,0,
00:00:04.736,-0.00606060866266489,0.00255128345452249,-0.00145300815347582,0,0,
00:00:04.74,-0.00410097697749734,0.0002912895870395,0.000564576068427414,0,0,
00:00:04.744,-0.0205935016274452,-0.00642892206087708,0.00673934537917376,0,0,
00:00:04.748,0.0172586087137461,0.0141646275296807,-0.0143286837264895,0,0,
00:00:04.752,0.00444560497999191,-0.00699552847072482,0.00661278422921896,0,0,
00:00:04.756,-0.0112683279439807,-0.00189503910951316,0.00154337112326175,0,0,
00:00:04.76,0.0119308969005942,0.00640155375003815,-0.00658621685579419,0,0,
00:00:04.764,0.00280744838528335,-0.00941764283925295,0.00733342627063394,0,0,
00:00:04.768,-0.00279200356453657,-0.00673356326296926,0.00880695413798094,0,0,
00:00:04.772,-0.00214659189805388,0.0171137768775225,-0.0153534924611449,0,0,
00:00:04.776,-0.0110838850960135,-0.00849708635360003,0.0108292056247592,0,0,
00:00:04.78,0.00775604508817196,0.0113953920081258,-0.0141909439116716,0,0,
00:00:04.784,0.00800452008843422,-0.00485257664695382,0.00216255080886185,0,0,
00:00:04.788,-0.0125057054683566,-0.010768961161375,0.00992470048367977,0,0,
00:00:04.792,0.000381417281460017,0.00314077362418175,-0.00241014850325882,0,0,
00:00:04.796,0.0186769608408213,0.00436402158811688,-0.00304912868887186,0,0,
00:00:04.8,-0.0210266411304474,-0.00670824898406863,0.00774965435266495,0,0,
00:00:04.804,-0.00287233362905681,0.013233495876193,-0.0128391934558749,0,0,
00:00:04.808,0.0121180135756731,-0.00943090952932835,0.00925316661596298,0,0,
00:00:04.812,-0.00540502043440938,0.00237954687327147,-0.00282816379331052,0,0,
00:00:04.816,0.0148739125579596,0.00234503182582557,-0.00276522734202445,0,0,
00:00:04.82,-0.00161211111117154,-0.000397661904571578,0.000172196479979903,0,0,
00:00:04.824,-0.0178395938128233,-0.0165603533387184,0.0165448114275932,0,0,
00:00:04.828,0.00576144829392433,0.0223020482808352,-0.0221883300691843,0,0,
00:00:04.832,0.00822596624493599,-0.00954289268702269,0.00968337617814541,0,0,
00:00:04.836,-0.00543167488649488,0.00535131059587002,-0.00525545980781317,0,0,
00:00:04.84,-0.0111164450645447,0.00457687769085169,-0.00454825488850474,0,0,
00:00:04.844,0.00328966369852424,-0.0150357652455568,0.0150128062814474,0,0,
00:00:04.848,0.0135763613507152,-0.00472420174628496,0.00260517280548811,0,0,
00:00:04.852,0.00338929030112922,0.0105131957679987,-0.00649862410500646,0,0,
00:00:04.856,0.000506102340295911,0.00956575479358435,-0.00991594139486551,0,0,
00:00:04.86,-0.0220012851059437,-0.00771243451163173,0.00624926248565316,0,0,
00:00:04.864,0.00260765431448817,-0.00173457222990692,0.000726803846191615,0,0,
00:00:04.868,0.0105245923623443,0.00429712841287255,-0.00446922844275832,0,0,
00:00:04.872,0.00155023101251572,-0.0119034573435783,0.0123082902282476,0,0,
00:00:04.876,-0.000892180891241878,0.015103948302567,-0.0145535655319691,0,0,
00:00:04.88,0.00943609327077866,-0.00997183471918106,0.0103516653180122,0,0,
00:00:04.884,-0.00826179049909115,0.00207353592850268,-0.00196975935250521,0,0,
00:00:04.888,-0.018598647788167,0.00486209383234382,-0.00497175240889192,0,0,
00:00:04.892,0.0178322121500969,-0.00987812224775553,0.00968708377331495,0,0,
00:00:04.896,0.0028776116669178,0.0048829847946763,-0.0050411568954587,0,0,
00:00:04.9,-0.00927633792161942,0.00474177859723568,-0.00481339218094945,0,0,
00:00:04.904,-0.00167248817160726,-0.00764965824782848,0.00765924854204059,0,0,
00:00:04.908,0.0011078305542469,0.00977945793420076,-0.0118023017421365,0,0,
00:00:04.912,0.0122429961338639,-0.00640299124643207,0.00843388121575117,0,0,
00:00:04.916,0.0104963192716241,-0.000373282993678004,0.00412436621263623,0,0,
00:00:04.92,-0.0227949023246765,0.00723278010264039,-0.00902512110769749,0,0,
00:00:04.924,-0.00884846784174442,-0.00947664491832256,0.00697929039597511,0,0,
00:00:04.928,0.00762516586109996,-0.00727270590141416,0.00605003349483013,0,0,
00:00:04.932,0.0168500859290361,0.0144922873005271,-0.0142935551702976,0,0,
00:00:04.936,-5.62764907954261E-05,0.00565245095640421,-0.00471148313954473,0,0,
00:00:04.94,-0.0115634370595217,-0.0133284609764814,0.0121863195672631,0,0,
00:00:04.944,-0.0176300834864378,0.00156960391905159,0.0029773956630379,0,0,
00:00:04.948,0.009906274266541,-0.00085901195416227,-0.00154373457189649,0,0,
00:00:04.952,0.0167373735457659,0.00908584985882044,-0.0067935474216938,0,0,
00:00:04.956,0.00376771786250174,-0.00588417239487171,0.0041827498935163,0,0,
00:00:04.96,-0.0109604950994253,-0.0109840910881758,0.00910133868455887,0,0,
00:00:04.964,-0.000992986955679953,0.0183934569358826,-0.0190822165459394,0,0,
00:00:04.968,0.00229063932783902,-0.00809065625071526,0.00851431582123041,0,0,
00:00:04.972,-0.00877840351313353,-0.000147387050674297,0.00103466270957142,0,0,
00:00:04.976,-0.000776372384279966,0.0013765983749181,-0.000630389607977122,0,0,
00:00:04.98,0.0144248874858022,0.00264187599532306,-0.00232533249072731,0,0,
00:00:04.984,-0.00525334849953651,0.00382626848295331,-0.00391376670449972,0,0,
00:00:04.988,-0.00564330397173762,-0.0146135669201612,0.0143183572217822,0,0,
00:00:04.992,-0.00295001035556197,-0.00395898753777146,0.00366484909318388,0,0,
00:00:04.996,0.000416840426623821,0.0152240917086601,-0.0153930345550179,0,0,
00:00:05,0.0316242799162865,-0.00459822500124574,0.00457444041967392,0,0,
00:00:05.004,-0.0247365646064281,0.0111868772655725,-0.011115713045001,0,0,
00:00:05.008,-0.0147906951606274,-0.0122287087142467,0.012324832379818,0,0,
00:00:05.012,0.0129663413390517,0.000638887460809201,-0.000569421274121851,0,0,
00:00:05.016,0.00329715432599187,0.00205321400426328,-0.00202914536930621,0,0,
00:00:05.02,-0.000533492711838335,-0.00178488809615374,0.00177208846434951,0,0,
00:00:05.024,-0.00752710178494453,-0.0115549005568027,0.0115260481834412,0,0,
00:00:05.028,0.00511853024363518,0.0205805897712708,-0.0226822104305029,0,0,
00:00:05.032,0.00896602310240269,-0.00465306872501969,0.00869119167327881,0,0,
00:00:05.036,0.00104368675965816,0.00395527947694063,-0.00428843963891268,0,0,
00:00:05.04,-0.00730371475219727,-0.0155221549794078,0.0140648791566491,0,0,
00:00:05.044,-0.00846599601209164,0.00853918306529522,-0.00955009739845991,0,0,
00:00:05.048,-0.00632963748648763,-0.00210690638050437,0.00192772340960801,0,0,
00:00:05.052,0.000926360720768571,-0.00157241313718259,0.00197090301662683,0,0,
00:00:05.056,0.0265750344842672,0.00730913504958153,-0.00676193786785007,0,0,
00:00:05.06,-0.017532704398036,-0.00358695001341403,0.00396681018173695,0,0,
00:00:05.064,0.0059574288316071,-0.00723177194595337,0.00733744539320469,0,0,
00:00:05.068,0.0111957611516118,0.0143251251429319,-0.0144326090812683,0,0,
00:00:05.072,-0.0114840157330036,-0.00884909648448229,0.00865946058183908,0,0,
00:00:05.076,-0.0143403653055429,0.00427392823621631,-0.00443175109103322,0,0,
00:00:05.08,0.0101307975128293,-0.00222615106031299,0.00215412024408579,0,0,
00:00:05.084,0.00556723633781075,-0.00463568698614836,0.00464459089562297,0,0,
00:00:05.088,-0.010735772550106,0.00534106325358152,-0.00528867496177554,0,0,
00:00:05.092,0.000403911340981722,-0.00150809390470386,0.00156342901755124,0,0,
00:00:05.096,0.013243461959064,-0.0100329332053661,0.010066244751215,0,0,
00:00:05.1,0.00687182741239667,0.0160765890032053,-0.0160704497247934,0,0,
00:00:05.104,-0.018964571878314,-0.00444387039169669,0.00443148985505104,0,0,
00:00:05.108,-0.014209202490747,-0.000696856062859297,0.000678967102430761,0,0,
00:00:05.112,0.0136070642620325,0.00197531143203378,-0.00198873598128557,0,0,
00:00:05.116,0.0237689614295959,-0.000264360976871103,0.000259314489085227,0,0,
00:00:05.12,-0.00575145334005356,-0.0145185925066471,0.0145206144079566,0,0,
00:00:05.124,-0.0139798754826188,0.0180515684187412,-0.0180462822318077,0,0,
00:00:05.128,-0.0136920427903533,-0.00732659595087171,0.0052557410672307,0,0,
00:00:05.132,0.019132062792778,0.00269339745864272,0.00136030348949134,0,0,
00:00:05.136,0.000256491970503703,0.00183477171231061,-0.00216792966239154,0,0,
00:00:05.14,-0.00622004643082619,-0.00308464979752898,0.00161826598923653,0,0,
00:00:05.144,-0.00474396534264088,0.00167747586965561,-0.00269891391508281,0,0,
00:00:05.148,0.0097987437620759,-0.0105594722554088,0.0103734582662582,0,0,
00:00:05.152,0.00315067800693214,0.00998936034739017,-0.00959260761737823,0,0,
00:00:05.156,-0.00410726247355342,-0.00403800513595343,0.00458718976005912,0,0,
00:00:05.16,-0.00592455128207803,-0.00401603616774082,0.00439920881763101,0,0,
00:00:05.164,0.00283112679608166,0.0167203862220049,-0.016612047329545,0,0,
00:00:05.168,-0.00144800974521786,-0.00641964795067906,0.0063133048824966,0,0,
00:00:05.172,-0.0060478444211185,-0.000888765382114798,0.000698889372870326,0,0,
00:00:05.176,0.00988012552261353,-0.00337053136900067,0.00321176345460117,0,0,
00:00:05.18,0.0153409894555807,-0.00418888684362173,0.00411590514704585,0,0,
00:00:05.184,-0.00792030896991491,0.00400457996875048,-0.00399622227996588,0,0,
00:00:05.188,-0.0131181683391333,0.000943108403589576,-0.00089079502504319,0,0,
00:00:05.192,-0.00158129492774606,2.56813236774178E-05,2.9886805350543E-05,0,0,
00:00:05.196,0.00647711893543601,-7.52387568354607E-05,0.000108863911009394,0,0,
00:00:05.2,-0.00757158361375332,0.00416074180975556,-0.00415437715128064,0,0,
00:00:05.204,0.0104151219129562,0.00232998165301979,-0.00234228488989174,0,0,
00:00:05.208,-0.00718723842874169,-0.0278620850294828,0.0278441533446312,0,0,
00:00:05.212,-0.0116210291162133,0.0166296362876892,-0.0166431535035372,0,0,
00:00:05.216,0.0214127171784639,0.0181544963270426,-0.0181596279144287,0,0,
00:00:05.22,0.00637559406459332,-0.00101741007529199,0.00101938925217837,0,0,
00:00:05.224,-0.00961487926542759,-0.0229917205870152,0.0229970067739487,0,0,
00:00:05.228,0.00345312338322401,0.0166114494204521,-0.0166064985096455,0,0,
00:00:05.232,-3.43529900419526E-05,-0.00984522514045238,0.00984785240143538,0,0,
00:00:05.236,-0.00648977141827345,0.00403498765081167,-0.00403484748676419,0,0,
00:00:05.24,-0.0092623895034194,-0.00324408547021449,0.00324271083809435,0,0,
00:00:05.244,-0.00127451273147017,0.000941902108024806,-0.000943572260439396,0,0,
00:00:05.248,0.0135268587619066,0.00613052072003484,-0.00613164622336626,0,0,
00:00:05.252,0.00498102232813835,-0.00470136618241668,0.004701042547822,0,0,
00:00:05.256,-0.00203334540128708,-0.00730251614004374,0.00730280065909028,0,0,
00:00:05.26,-0.0108904065564275,0.0108278868719935,-0.0108273690566421,0,0,
00:00:05.264,-0.0185225233435631,0.00831007119268179,-0.00830963999032974,0,0,
00:00:05.268,0.0213850755244493,-0.0142423808574677,0.0163183566182852,0,0,
00:00:05.272,0.0177717655897141,-0.00183314085006714,-0.00221798755228519,0,0,
00:00:05.276,0.00886752083897591,0.00471914652734995,-0.0043860119767487,0,0,
00:00:05.28,-0.0203053597360849,-0.00334671605378389,0.00481156865134835,0,0,
00:00:05.284,-0.0136236539110541,0.00565187027677894,-0.00463218754157424,0,0,
00:00:05.288,0.00371070229448378,0.00506879622116685,-0.00488391425460577,0,0,
00:00:05.292,-0.00512037193402648,-0.0115697830915451,0.0111727491021156,0,0,
00:00:05.296,0.00375218759290874,0.00296452478505671,-0.00351337250322104,0,0,
00:00:05.3,0.0176624059677124,0.00361822685226798,-0.00400084536522627,0,0,
00:00:05.304,0.00816760864108801,-0.00776858674362302,0.00766069116070867,0,0,
00:00:05.308,-0.0142655447125435,0.0124026481062174,-0.0122961169108748,0,0,
00:00:05.312,-0.0288629923015833,-0.00766445090994239,0.00993006490170956,0,0,
00:00:05.316,0.0210348516702652,-0.00358214764855802,-0.000310345436446369,0,0,
00:00:05.32,0.015508946031332,0.00920280534774065,-0.00879670213907957,0,0,
00:00:05.324,-0.00899628736078739,-0.00709099462255836,0.00854755099862814,0,0,
00:00:05.328,-0.00182353693526238,-0.00628316914662719,0.00725061725825071,0,0,
00:00:05.332,0.00351682747714221,0.018240924924612,-0.0181115549057722,0,0,
00:00:05.336,-0.0109735494479537,-0.00971774011850357,0.00928709842264652,0,0,
00:00:05.34,-0.00843977835029364,0.002713518217206,-0.00326874246820807,0,0,
00:00:05.344,0.010066319257021,-0.00711100455373526,0.00674066506326199,0,0,
00:00:05.348,0.0167359188199043,0.00364308641292155,-0.00373307103291154,0,0,
00:00:05.352,0.000204254800337367,0.0032044320832938,-0.0030843922868371,0,0,
00:00:05.356,-0.00273591582663357,-0.00399131514132023,0.00418628007173538,0,0,
00:00:05.36,-0.0108173564076424,8.81114683579654E-05,6.85254926793277E-05,0,0,
00:00:05.364,-0.0108601097017527,0.0012560662580654,0.000887257396243513,0,0,
00:00:05.368,0.00588877126574516,0.00301727093756199,-0.00708176754415035,0,0,
00:00:05.372,0.00527884066104889,-0.00384144112467766,0.00411976920440793,0,0,
00:00:05.376,0.00327324774116278,-0.00207586190663278,0.00348519603721797,0,0,
00:00:05.38,-0.00528303161263466,0.00501836091279984,-0.00403078785166144,0,0,
00:00:05.384,0.011413942091167,0.00447252439334989,-0.00429228553548455,0,0,
00:00:05.388,-0.00238756579346955,-0.0115785431116819,0.0111949145793915,0,0,
00:00:05.392,-0.00556803401559591,0.00338175613433123,-0.00391240511089563,0,0,
00:00:05.396,-0.00568486982956529,0.00410588877275586,-0.00239954516291618,0,0,
00:00:05.4,0.00354226375930011,-0.00746644893661141,0.00331203709356487,0,0,
00:00:05.404,-0.000846448820084333,0.0103752072900534,-0.00993780884891748,0,0,
00:00:05.408,0.00255764019675553,-0.0058199567720294,0.00746932672336698,0,0,
00:00:05.412,0.00409089215099812,-4.91556238557678E-05,0.00122263177763671,0,0,
00:00:05.416,0.00254039443098009,0.0051891291514039,-0.00493387877941132,0,0,
00:00:05.42,-0.0105970548465848,-0.00765474187210202,0.00724924029782414,0,0,
00:00:05.424,-0.00068815058330074,0.00455163512378931,-0.00307561480440199,0,0,
00:00:05.428,-0.00742822512984276,-0.00364810274913907,-0.000839503307361156,0,0,
00:00:05.432,0.0230925660580397,-0.0017707779770717,0.00196366221643984,0,0,
00:00:05.436,-0.00458407215774059,0.00766113493591547,-0.00609564874321222,0,0,
00:00:05.44,-0.00574857462197542,-0.00110559968743473,0.00232721655629575,0,0,
00:00:05.444,0.00533533003181219,-0.00274955737404525,0.00311047257855535,0,0,
00:00:05.448,-0.00171734089963138,-0.00982302613556385,0.00951186660677195,0,0,
00:00:05.452,-0.0110112689435482,0.0162812490016222,-0.0168336573988199,0,0,
00:00:05.456,-0.0020062227267772,-0.00245793792419136,0.00202100700698793,0,0,
00:00:05.46,-0.0066332146525383,-0.00290544657036662,0.00273686903528869,0,0,
00:00:05.464,0.0190821122378111,-0.00607392285019159,0.00614208914339542,0,0,
00:00:05.468,0.00759350601583719,0.0116758812218904,-0.0114948973059654,0,0,
00:00:05.472,0.00454434752464294,-0.0104373721405864,0.0106081869453192,0,0,
00:00:05.476,-0.0179338380694389,0.000488716003019363,-0.000396621937397867,0,0,
00:00:05.48,0.00191479688510299,0.00940218381583691,-0.00731972837820649,0,0,
00:00:05.484,0.00214427057653666,-0.00795107055455446,0.0038538440130651,0,0,
00:00:05.488,-0.0137648899108171,-0.0069375904276967,0.00721366005018353,0,0,
00:00:05.492,-0.00752766523510218,0.0160286538302898,-0.0146027905866504,0,0,
00:00:05.496,0.0279642082750797,-0.00959169212728739,0.0105996876955032,0,0,
00:00:05.5,0.00197169277817011,0.0107990130782127,-0.010604839771986,0,0,
00:00:05.504,-0.00795127265155315,-0.00695612514391541,0.00657665589824319,0,0,
00:00:05.508,0.00502856308594346,-0.00846569053828716,0.00793169904500246,0,0,
00:00:05.512,-0.0104070715606213,0.00933479610830545,-0.00763474404811859,0,0,
00:00:05.516,0.000303681910736486,-0.00328813516534865,-0.000871590978931636,0,0,
00:00:05.52,0.00193765549920499,-0.00887820217758417,0.0093131409958005,0,0,
00:00:05.524,0.00083203223766759,0.0170464627444744,-0.0153968250378966,0,0,
00:00:05.528,-0.00648373225703835,-0.00442684628069401,0.00560206873342395,0,0,
00:00:05.532,0.00742024043574929,-0.0013103784294799,0.00156749039888382,0,0,
00:00:05.536,-0.00152382731903344,0.00336981285363436,-0.00377418496645987,0,0,
00:00:05.54,-0.00328856776468456,-0.00469540804624558,0.00409586448222399,0,0,
00:00:05.544,0.013108853250742,0.000339353631716222,-0.00077626813435927,0,0,
00:00:05.548,-0.00454871775582433,-0.0106812864542007,0.0105402898043394,0,0,
00:00:05.552,-0.00469701969996095,0.0065903551876545,-0.00649032741785049,0,0,
00:00:05.556,-0.0050841155461967,0.00499519053846598,-0.00479352008551359,0,0,
00:00:05.56,-0.0112002156674862,0.00214662845246494,-0.00197054538875818,0,0,
00:00:05.564,0.0103303678333759,-0.000315630226396024,0.000401716184569523,0,0,
00:00:05.568,0.019747544080019,0.000516229483764619,-0.000519575143698603,0,0,
00:00:05.572,-0.00120003055781126,-0.00356673705391586,0.00351255014538765,0,0,
00:00:05.576,-0.0147406766191125,-0.00671072257682681,0.0066500585526228,0,0,
00:00:05.58,0.0047884494997561,0.00572311645373702,-0.00576153304427862,0,0,
00:00:05.584,-0.00186977733392268,0.00669372128322721,-0.00670264102518559,0,0,
00:00:05.588,-0.00741877686232328,-0.00783777702599764,0.00992571003735065,0,0,
00:00:05.592,0.00223800144158304,-0.000188015823368914,-0.00384383392520249,0,0,
00:00:05.596,-0.000451666681328788,0.00400372734293342,-0.00365531514398754,0,0,
00:00:05.6,0.0039248145185411,-0.0067696450278163,0.00824087206274271,0,0,
00:00:05.604,0.00537211587652564,0.0128565384075046,-0.00976264663040638,0,0,
00:00:05.608,-0.00932723563164473,-0.0078577809035778,0.00398601731285453,0,0,
00:00:05.612,0.00526695745065808,-0.00408328324556351,0.00401404360309243,0,0,
00:00:05.616,0.0150478770956397,0.0046043936163187,-0.00161555188242346,0,0,
00:00:05.62,-0.0117913782596588,0.00703517021611333,-0.00837370567023754,0,0,
00:00:05.624,-0.017458152025938,-0.00868438556790352,0.00504495063796639,0,0,
00:00:05.628,0.0136427469551563,-0.00999973807483912,0.0115092992782593,0,0,
00:00:05.632,0.00737674906849861,0.00663699442520738,-0.00243421201594174,0,0,
00:00:05.636,-0.00551754143089056,0.0139122540131211,-0.0149065256118774,0,0,
00:00:05.64,-0.0202180836349726,-0.00701299915090203,0.00304765882901847,0,0,
00:00:05.644,0.00385958515107632,-0.00234226160682738,0.00329211773350835,0,0,
00:00:05.648,0.0294759124517441,0.00152386620175093,0.00016639921523165,0,0,
00:00:05.652,-0.00126291869673878,0.00426775682717562,-0.00345079228281975,0,0,
00:00:05.656,-0.00967744924128056,-0.021958926692605,0.0217846501618624,0,0,
00:00:05.66,0.000906130182556808,0.0192364361137152,-0.0199006423354149,0,0,
00:00:05.664,-0.00179590727202594,-0.00627248268574476,0.00564955547451973,0,0,
00:00:05.668,-0.0169049073010683,0.014933979138732,-0.0131548140197992,0,0,
00:00:05.672,-0.00442756712436676,-0.012566115707159,0.00855797529220581,0,0,
00:00:05.676,0.0205413028597832,-0.00256463047116995,0.00313227344304323,0,0,
00:00:05.68,0.00195248262025416,0.00756804645061493,-0.00585215538740158,0,0,
00:00:05.684,0.00644412124529481,-0.00610336055979133,0.00935385562479496,0,0,
00:00:05.688,-0.00487728556618094,-0.0101865297183394,0.00635334476828575,0,0,
00:00:05.692,-0.0105818109586835,0.0173921026289463,-0.0175081808120012,0,0,
00:00:05.696,0.00247111986391246,-0.00535505870357156,0.00826721824705601,0,0,
00:00:05.7,0.00743182888254523,0.00380182405933738,-0.00727738486602902,0,0,
00:00:05.704,-0.00734424032270908,0.00146345573011786,0.000998041010461748,0,0,
00:00:05.708,-0.00879857968539,-0.00425728689879179,0.00138827878981829,0,0,
00:00:05.712,0.00306889275088906,0.00056699977722019,0.00252593494951725,0,0,
00:00:05.716,0.0199179071933031,-0.00903513096272945,0.0064321793615818,0,0,
00:00:05.72,0.000169314269442111,-0.00231778994202614,0.00532667571678758,0,0,
00:00:05.724,-0.026550529524684,0.0149730518460274,-0.0178239978849888,0,0,
00:00:05.728,0.0186044815927744,-0.00749277323484421,0.00819771364331245,0,0,
00:00:05.732,0.00356396986171603,0.0145727479830384,-0.013484007678926,0,0,
00:00:05.736,-0.00209438474848866,-0.0149049693718553,0.0152856623753905,0,0,
00:00:05.74,-0.00733157247304916,0.00329528748989105,-0.00359371490776539,0,0,
00:00:05.744,-0.0149733675643802,-0.00115217384882271,0.000598768063355237,0,0,
00:00:05.748,0.0118604777380824,-0.00748005602508783,0.00705060549080372,0,0,
00:00:05.752,0.00904791336506605,0.0162503700703382,-0.0163944307714701,0,0,
00:00:05.756,-0.0057579749263823,-0.008241874165833,0.0083440262824297,0,0,
00:00:05.76,-0.000600867788307369,-0.0109976921230555,0.0112091237679124,0,0,
00:00:05.764,0.0128160156309605,0.0188067499548197,-0.0186179652810097,0,0,
00:00:05.768,0.00298020662739873,-0.00585564831271768,0.00802761875092983,0,0,
00:00:05.772,-0.0192874241620302,-0.000182143077836372,-0.00179186183959246,0,0,
00:00:05.776,0.00454954104498029,-0.00248583336360753,0.000789197918493301,0,0,
00:00:05.78,-0.000180388655280694,0.000639999809209257,-0.000880888022948056,0,0,
00:00:05.784,-0.0117777967825532,-0.0121641159057617,0.0108891930431128,0,0,
00:00:05.788,-0.00316335866227746,0.0197262521833181,-0.0167343709617853,0,0,
00:00:05.792,0.0103205805644393,-0.00693756807595491,0.00922185368835926,0,0,
00:00:05.796,0.0260783098638058,0.00420480035245419,-0.0039261388592422,0,0,
00:00:05.8,0.0002736724272836,-0.00308860302902758,0.004036879632622,0,0,
00:00:05.804,-0.0161447022110224,-0.00549057917669415,1.00124871096341E-05,0,0,
00:00:05.808,-0.00622596079483628,0.00487255770713091,-0.00547352666035295,0,0,
00:00:05.812,-0.0111473836004734,-0.00571052357554436,0.00697568710893393,0,0,
00:00:05.816,0.0154041619971395,-0.00172737613320351,0.00308848218992352,0,0,
00:00:05.82,-0.0108582135289907,0.011514700949192,-0.0108053153380752,0,0,
00:00:05.824,-0.00454511912539601,0.000900548649951816,-0.000885262037627399,0,0,
00:00:05.828,0.011754353530705,-0.00335629540495574,0.00297945854254067,0,0,
00:00:05.832,0.0115454634651542,-0.00137239100877196,0.00302392593584955,0,0,
00:00:05.836,-0.000125796577776782,-0.00366860092617571,0.00143685797229409,0,0,
00:00:05.84,-0.00342325028032064,-0.00150443846359849,-0.00225413148291409,0,0,
00:00:05.844,-0.00759778684005141,0.00927057862281799,-0.00736581301316619,0,0,
00:00:05.848,-0.00464977882802486,-0.0120657831430435,0.0167747363448143,0,0,
00:00:05.852,-0.000268791598500684,-0.0134230386465788,0.0106863463297486,0,0,
00:00:05.856,0.00667082890868187,0.0291638188064098,-0.0290025528520346,0,0,
00:00:05.86,0.00321873789653182,0.0115264775231481,-0.00894942693412304,0,0,
00:00:05.864,-0.0156699176877737,-0.0224103815853596,0.0204792451113462,0,0,
00:00:05.868,0.0066683292388916,0.00727059971541166,-0.00925881322473288,0,0,
00:00:05.872,0.0171749163419008,-0.0133814327418804,0.0127848964184523,0,0,
00:00:05.876,-0.0105430381372571,0.000343676598276943,-0.00182988168671727,0,0,
00:00:05.88,0.00179511005990207,0.00908018182963133,-0.00609984900802374,0,0,
00:00:05.884,0.000367104657925665,-0.00176386570092291,0.00417375192046165,0,0,
00:00:05.888,-0.0192924737930298,-0.00169962109066546,0.0021383510902524,0,0,
00:00:05.892,0.00618952419608831,0.00475083012133837,-0.00576299568638206,0,0,
00:00:05.896,0.0171253513544798,-9.27889050217345E-05,-0.00129543314687908,0,0,
00:00:05.9,0.00438460288569331,0.00241701561026275,-0.00129472662229091,0,0,
00:00:05.904,-0.00272177159786224,-0.0116948531940579,0.00947348121553659,0,0,
