Elapsed Time,Ch1,Sensor 1,Ch3,Ch4,BioRadio Event,
00:00:00,-0.163986623287201,-37.1045684814453,35.2592010498047,-41.5633430480957,0,
00:00:00.004,0.158126249909401,35.310962677002,-33.5528259277344,39.5518798828125,0,
00:00:00.008,0.127746075391769,29.3516178131104,-27.8938179016113,32.8786277770996,0,
00:00:00.012,0.00819243397563696,3.16717219352722,-3.01142716407776,3.54484081268311,0,
00:00:00.016,-0.0628024637699127,-15.0882406234741,14.3367967605591,-16.8740844726563,0,
00:00:00.02,-0.0729046240448952,-18.3470191955566,17.438346862793,-20.5762958526611,0,
00:00:00.024,-0.0523835122585297,-11.2729644775391,10.7130870819092,-12.6257877349854,0,
00:00:00.028,-0.0128664765506983,-1.45025444030762,1.3747421503067,-1.63522136211395,0,
00:00:00.032,0.0234257318079472,5.3691086769104,-5.10049295425415,6.02669095993042,0,
00:00:00.036,0.0361440628767014,7.31238698959351,-6.94772100448608,8.18527507781982,0,
00:00:00.04,0.0256470125168562,5.40223932266235,-5.13119983673096,6.0582160949707,0,
00:00:00.044,0.0018375312210992,2.00665354728699,-1.91127777099609,2.25041842460632,0,
00:00:00.048,-0.00167022703681141,-0.81862485408783,0.777207911014557,-0.922771573066711,0,
00:00:00.052,-0.00602830899879336,-2.12942266464233,2.02674794197083,-2.38094449043274,0,
00:00:00.056,-0.00498427730053663,-1.97884559631348,1.87959182262421,-2.21242427825928,0,
00:00:00.06,-0.00895885564386845,-1.03005242347717,0.977108359336853,-1.16507935523987,0,
00:00:00.064,-0.00121347804088145,-0.042375061661005,0.0376943312585354,-0.053166575729847,0,
00:00:00.068,0.00468118395656347,0.54033499956131,-0.508248150348663,0.619355618953705,0,
00:00:00.072,0.00131888629402965,0.670623540878296,-0.637086510658264,0.746335208415985,0,
00:00:00.076,0.00053743680473417,0.445714503526688,-0.426577836275101,0.499887883663177,0,
00:00:00.08,-0.00165724556427449,0.120744697749615,-0.113439321517944,0.140987932682037,0,
00:00:00.084,0.00018255076429341,-0.107552088797092,0.105134680867195,-0.129482001066208,0,
00:00:00.088,0.00782462768256664,-0.211319252848625,0.19724228978157,-0.232045516371727,0,
00:00:00.092,-0.00435777567327023,-0.167857229709625,0.161200940608978,-0.192353770136833,0,
00:00:00.096,-0.00429465249180794,-0.0775195136666298,0.0724276378750801,-0.0865156799554825,0,
00:00:00.1,0.00117564818356186,0.0116390259936452,-0.0122026707977057,0.0125447120517492,0,
00:00:00.104,0.00795375183224678,0.0485736541450024,-0.0457803383469582,0.065090499818325,0,
00:00:00.108,-0.00734136020764709,0.0727231055498123,-0.0690707638859749,0.067862331867218,0,
00:00:00.112,-0.00536813586950302,0.0289993304759264,-0.0285088773816824,0.0382582657039166,0,
00:00:00.116,0.00236633396707475,0.0055264257825911,-0.00276144966483116,0.00888502225279808,0,
00:00:00.12,0.00586683303117752,-0.0102670146152377,0.0133658200502396,-0.0118880094960332,0,
00:00:00.124,0.00235000276006758,-0.0201711673289537,0.0171774979680777,-0.0238685682415962,0,
00:00:00.128,-0.00758488150313497,-0.0136003131046891,0.0100869461894035,-0.0188556294888258,0,
00:00:00.132,0.00309582939371467,-0.0098477927967906,0.00814948137849569,-0.00721040926873684,0,
00:00:00.136,0.000619596103206277,-0.00125094980467111,0.00149258656892926,0.00284795952029526,0,
00:00:00.14,0.00177783786784858,0.0138171501457691,-0.0125490473583341,0.00542762596160173,0,
00:00:00.144,-0.00653304578736424,0.00808631535619497,-0.00679996609687805,0.00894114095717669,0,
00:00:00.148,0.00210250099189579,0.00388838816434145,-0.00317631103098392,0.00526895420625806,0,
00:00:00.152,0.00726978620514274,-0.00425560679286718,0.00430543906986713,0.00027278414927423,0,
00:00:00.156,-0.00055412610527128,-0.00306801730766892,0.00269810645841062,-0.00286432169377804,0,
00:00:00.16,-0.00994332134723663,-0.0130752166733146,0.012613482773304,-0.0034244074486196,0,
00:00:00.164,0.000594504992477596,0.0144654586911201,-0.0147847514599562,-0.0022194548510015,0,
00:00:00.168,0.00360992737114429,-0.00417349673807621,0.00407387828454375,-0.000516375992447138,0,
00:00:00.172,0.00689564179629087,0.00272511993534863,-0.00265367701649666,0.00072780076880008,0,
00:00:00.176,-0.00527966627851129,-0.000676222960464656,0.000817015417851508,0.00115621543955058,0,
00:00:00.18,-0.00416263099759817,-0.00119569175876677,0.00131660734768957,0.000916159013286233,0,
00:00:00.184,0.00819315109401941,-0.00267353933304548,0.00273093022406101,0.000384611776098609,0,
00:00:00.188,-0.00549892103299499,0.00414091348648071,-0.00206952099688351,-9.0699853899423E-05,0,
00:00:00.192,0.000145148747833446,0.00425668247044086,-0.00627062423154712,-0.000329573376802728,0,
00:00:00.196,-0.00544963544234633,-0.0112206432968378,0.00746077625080943,-0.000327751564327627,0,
00:00:00.2,0.00602178461849689,0.00390456197783351,-0.00213226303458214,-0.000185974320629612,0,
00:00:00.204,0.000376147305360064,0.00446428824216127,-0.00198494060896337,-2.32286965911044E-05,0,
00:00:00.208,0.0040785544551909,-0.00738674541935325,0.00860034022480249,8.1895814219024E-05,0,
00:00:00.212,-0.00559101486578584,0.0123160937801003,-0.0104389991611242,0.000108182066469453,0,
00:00:00.216,0.00337050971575081,-0.0100825903937221,0.00509588280692697,7.70792321418412E-05,0,
00:00:00.22,0.00373703986406326,0.000114439477329142,-0.000708629901055247,-0.00205000210553408,0,
00:00:00.224,-0.00554030388593674,0.00865588616579771,-0.00768278865143657,0.00196002423763275,0,
00:00:00.228,-0.00655498774722219,-0.010672933422029,0.011687396094203,0.00160929304547608,0,
00:00:00.232,-0.000742972653824836,0.00305237248539925,-0.00257485429756343,0.000148149745655246,0,
00:00:00.236,0.00987548939883709,0.00360644469037652,-0.00365708814933896,-0.000856956758070737,0,
00:00:00.24,0.000591727264691144,-0.0077251372858882,0.00740753160789609,-0.00102716812398285,0,
00:00:00.244,-0.00423993170261383,0.0124639868736267,-0.0127812502905726,-0.000621709914412349,0,
00:00:00.248,-0.00195007608272135,-0.00763961439952254,0.00747219007462263,-7.17096263542771E-05,0,
00:00:00.252,0.00505287945270538,-0.00153291900642216,0.00360824004746974,-0.00176846608519554,0,
00:00:00.256,0.00224338448606431,0.00509384414181113,-0.00904394406825304,0.00238570407964289,0,
00:00:00.26,-0.00567848468199372,-0.00474019348621368,0.00519198970869184,0.00401819916442037,0,
00:00:00.264,-0.00325013091787696,-0.00683030625805259,0.0104495221748948,-0.00168893276713789,0,
00:00:00.268,0.00696672778576612,0.0176087599247694,-0.018542842939496,-0.00253338017500937,0,
00:00:00.272,0.000987711013294756,-0.00970030203461647,0.00822210311889648,-0.0034004223998636,0,
00:00:00.276,-0.00430016359314322,-0.000975666393060237,0.000364661798812449,0.00207726703956723,0,
00:00:00.28,-0.00890011992305517,0.00148362654726952,-0.00329590635374188,0.00460653519257903,0,
00:00:00.284,0.00822648033499718,0.00323050282895565,-0.000623689265921712,-0.000868466508109123,0,
00:00:00.288,0.00899071246385574,0.00439876643940806,-0.000156134861754254,-0.00196276651695371,0,
00:00:00.292,-0.00520822452381253,-0.0143321780487895,0.01065668836236,-0.00116597034502774,0,
00:00:00.296,-0.0092398663982749,-0.00399053888395429,0.00545644294470549,-5.94872217334341E-05,0,
00:00:00.3,0.00492008216679096,0.0170874185860157,-0.0188693255186081,-0.00147155264858156,0,
00:00:00.304,0.00938242021948099,-0.00888162106275558,0.00532450806349516,0.0026687381323427,0,
00:00:00.308,-0.000538213702384382,0.0113738793879747,-0.0095958299934864,0.00205656536854804,0,
00:00:00.312,-0.0133165009319782,-0.0107975788414478,0.0131765622645617,0.000229626195505261,0,
00:00:00.316,0.00324070150963962,0.00378068280406296,-0.000579397368710488,-0.00103548518382013,0,
00:00:00.32,0.00459841499105096,-0.00173974328208715,-0.000452056672656909,-0.00128628709353507,0,
00:00:00.324,-0.000670458655804396,-0.00386682851240039,0.00133569142781198,-0.00289460364729166,0,
00:00:00.328,-0.00555347884073853,0.00381499296054244,-0.00692294770851731,0.00390245113521814,0,
00:00:00.332,0.00340926903299987,0.000622714287601411,0.00176361866760999,2.32354707918603E-07,0,
00:00:00.336,0.00777861196547747,-0.00647152587771416,0.011240460909903,-0.000979357864707708,0,
00:00:00.34,-0.00290557043626904,0.0140004027634859,-0.0148769011721015,-0.00272350199520588,0,
00:00:00.344,-0.00857633911073208,-0.00716054486110806,0.00300975400023162,0.00401438353583217,0,
00:00:00.348,-0.000351589143974707,-0.00200756755657494,0.00268816202878952,1.81512295966968E-05,0,
00:00:00.352,0.00970207806676626,0.00427630916237831,-0.000702659715898335,-0.00105534808244556,0,
00:00:00.356,0.00173869694117457,-0.00121653999667615,-6.10081315244315E-07,-0.00284711341373622,0,
00:00:00.36,-0.00930181052535772,-0.0151474559679627,0.0133787989616394,0.00182463740929961,0,
00:00:00.364,-0.00216381764039397,0.0163385458290577,-0.0170889608561993,0.00400165468454361,0,
00:00:00.368,0.00863087829202414,-0.00242221145890653,0.000643846637103707,-0.00347968842834234,0,
00:00:00.372,0.00170299562159926,0.0030731912702322,-0.000330135255353525,-0.000240707769989967,0,
00:00:00.376,-0.00457289023324847,-0.00145027507096529,0.00376290804706514,0.000503441377077252,0,
00:00:00.38,-0.00961712095886469,-0.000222922753891908,0.00276689860038459,0.000300770625472069,0,
00:00:00.384,0.00967639312148094,-0.00751667190343142,0.00254569784738123,-4.12656736443751E-05,0,
00:00:00.388,0.00467056874185801,0.00423182966187596,-0.00312105729244649,-0.000212874176213518,0,
00:00:00.392,-0.00479843327775598,0.00592286745086312,-0.00733657879754901,-0.000191006431123242,0,
00:00:00.396,-0.00336634670384228,-0.00774108152836561,0.00687807658687234,-7.10816020728089E-05,0,
00:00:00.4,0.00224654376506805,0.000369087152648717,-8.519554103259E-05,4.50623338110745E-05,0,
00:00:00.404,0.00643238890916109,0.00456002913415432,-0.00364144775085151,-0.00197397731244564,0,
00:00:00.408,-0.00334258261136711,0.00182410166598856,-0.000954443123191595,0.0020703945774585,0,
00:00:00.412,-0.00818982347846031,-0.00542975636199117,0.00585509976372123,0.0037696878425777,0,
00:00:00.416,0.00449635973200202,-0.00473520252853632,0.00261032162234187,-0.00179342599585652,0,
00:00:00.42,0.00422558933496475,0.00735500454902649,-0.0036283761728555,-0.00458514830097556,0,
00:00:00.424,-0.00144198734778911,0.00891962647438049,-0.00960883498191834,0.000739395385608077,0,
00:00:00.428,-0.0040640365332365,-0.0127959027886391,0.0111049991101027,0.00183245108928531,0,
00:00:00.432,-0.000878954131621867,0.00110332027543336,-0.00217769597657025,0.00111611187458038,0,
00:00:00.436,0.00815150234848261,0.00277698831632733,-0.0028934411238879,9.35637945076451E-05,0,
00:00:00.44,-0.00127988040912896,-0.0075302803888917,0.0080382339656353,-0.000527564319781959,0,
00:00:00.444,-0.00533291604369879,0.0131453489884734,-0.0125083541497588,-0.000620992388576269,0,
00:00:00.448,-0.00207285000942647,-0.0069951475597918,0.0074147810228169,-0.000374139694031328,0,
00:00:00.452,0.00765280844643712,-0.00120603188406676,0.00130517617799342,-4.77589310321491E-05,0,
00:00:00.456,0.000959108583629131,0.00508393440395594,-0.00522219995036721,0.000174836706719361,0,
00:00:00.46,-0.00889827869832516,-0.00494801439344883,0.00472664786502719,-0.00184065289795399,0,
00:00:00.464,-0.00127816537860781,-0.00914262793958187,0.00896615441888571,0.00422262260690331,0,
00:00:00.468,0.00728591438382864,0.0152799533680081,-0.015354972332716,-0.000271904224064201,0,
00:00:00.472,0.00396253168582916,0.00415734341368079,-0.00414098333567381,-0.00149423675611615,0,
00:00:00.476,-0.0030548395588994,-0.00329494010657072,0.00543347047641873,-0.00108945032116026,0,
00:00:00.48,-0.0076865516602993,-0.0137013997882605,0.00971324276179075,-0.000248347350861877,0,
00:00:00.484,0.00240119476802647,0.00415285117924213,-0.00378352752886713,0.000364474457455799,0,
00:00:00.488,0.00786043982952833,0.00570682855322957,-0.00423697894439101,0.000548322859685868,0,
00:00:00.492,-0.00223632366396487,-1.812761547626E-05,0.00102242745924741,0.000401040684664622,0,
00:00:00.496,-0.00786403845995665,-0.00341854058206081,0.00358273298479617,-0.00194630154874176,0,
00:00:00.5,0.00214742310345173,0.00317660649307072,-0.00358854467049241,0.00188294996041805,0,
00:00:00.504,0.00779466796666384,0.0120375016704202,-0.0105156870558858,0.00145594286732376,0,
00:00:00.508,-0.00422609224915504,-0.0233053062111139,0.0209501683712006,1.44619825732661E-05,0,
00:00:00.512,-0.00784236285835505,-0.0109272543340921,0.00918354839086533,-0.000922325125429779,0,
00:00:00.516,0.00999006535857916,0.0233130343258381,-0.0254537612199783,-0.00102468230761588,0,
00:00:00.52,0.00358934188261628,0.0106958150863647,-0.00768514443188906,-0.000580632826313376,0,
00:00:00.524,-0.00417217426002026,-0.005751624237746,0.0085798678919673,-2.56886651186505E-05,0,
00:00:00.528,-0.00630774488672614,-0.00142213678918779,0.00230088992975652,0.000336480705300346,0,
00:00:00.532,-0.00166777626145631,-0.00985446199774742,0.0090830372646451,0.000417178962379694,0,
00:00:00.536,0.00653990684077144,-0.00686905346810818,0.00548688042908907,0.000291180243948475,0,
00:00:00.54,0.00377884227782488,0.0120270336046815,-0.0131223257631063,9.47565931710415E-05,0,
00:00:00.544,-0.00270309252664447,-0.0013725160388276,0.00095528521342203,-0.00213586329482496,0,
00:00:00.548,-0.00716012017801404,-0.00205451529473066,0.00223726779222488,0.00392640382051468,0,
00:00:00.552,0.00693776085972786,0.00863437727093697,-0.00609079236164689,-0.000442252901848406,0,
00:00:00.556,-0.000123286270536482,-0.00609640777111053,0.00456051435321569,-0.00359382596798241,0,
00:00:00.56,-0.00582214817404747,-0.0111353062093258,0.0097297253087163,0.000957947399001569,0,
00:00:00.564,0.005051139742136,0.0162029936909676,-0.0163630358874798,0.00356668443419039,0,
00:00:00.568,-0.000697954616043717,-0.00410257279872894,0.00482683954760432,-0.00343941268511117,0,
00:00:00.572,0.00548574887216091,-0.00256468472070992,0.00136971473693848,6.31095754215494E-05,0,
00:00:00.576,-0.00351645774208009,0.00814362987875938,-0.00563813932240009,0.000825388240627944,0,
00:00:00.58,-0.00606323452666402,-0.000544907990843058,0.00431423122063279,0.00256524910219014,0,
00:00:00.584,0.000516619300469756,-0.0217330511659384,0.019657613709569,-0.0040663811378181,0,
00:00:00.588,0.00460007460787892,0.0109382905066013,-0.0137868029996753,3.79923621949274E-05,0,
00:00:00.592,-0.00203713960945606,0.0131919085979462,-0.0167364906519651,0.00116257206536829,0,
00:00:00.596,-0.00106368446722627,-0.0100568039342761,0.0121495360508561,0.000867719936650246,0,
00:00:00.6,0.00510438298806548,0.00181166373658925,0.00289638503454626,0.000201415139599703,0,
00:00:00.604,0.00398785108700395,0.00205407710745931,-0.00281438697129488,-0.000280936306808144,0,
00:00:00.608,-0.00802384316921234,-0.00665932148694992,0.00268643954768777,-0.000420581578509882,0,
00:00:00.612,-0.00719214743003249,0.00399973429739475,-0.00110190408304334,-0.000300759449601173,0,
00:00:00.616,0.00664550624787807,0.00522047095000744,-0.00563690857961774,-8.77913043950684E-05,0,
00:00:00.62,0.0076010380871594,-0.00838140957057476,0.00541011383756995,8.20171990199015E-05,0,
00:00:00.624,-0.00331628904677927,5.6609478633618E-05,0.00156608305405825,-0.00192602747119963,0,
00:00:00.628,-0.00634265691041946,0.00250449753366411,-0.000642858096398413,0.00417770957574248,0,
00:00:00.632,-0.00181210110895336,0.00400789175182581,-0.00130163470748812,-0.000274016114417464,0,
00:00:00.636,0.00644998904317617,-0.00148237869143486,-0.000969296786934137,-0.00147042074240744,0,
00:00:00.64,0.00372044998221099,-0.00431445054709911,0.00177838874515146,-0.00106067559681833,0,
00:00:00.644,-0.00484120147302747,-0.00122555415146053,-0.00173305941279978,-0.000229007520829327,0,
00:00:00.648,-0.00525627704337239,0.00997558049857616,-0.00533663807436824,0.000370005844160914,0,
00:00:00.652,0.00851433537900448,-0.00747460080310702,0.00830996129661798,0.00054341193754226,0,
00:00:00.656,0.00623755622655153,0.00121364998631179,-0.00172430626116693,-0.00168364343699068,0,
00:00:00.66,-0.0126071712002158,0.00138574361335486,-0.00202681845985353,0.00417316844686866,0,
00:00:00.664,-0.00920080207288265,-0.00863453187048435,0.00830463692545891,-0.00250478787347674,0,
00:00:00.668,0.012283731251955,0.0107556143775582,-0.0128359850496054,0.000324676278978586,0,
00:00:00.672,0.00651275925338268,-0.00265644793398678,0.00687138317152858,0.000462185213109478,0,
00:00:00.676,-0.00236757239326835,-0.00312855187803507,0.00296561559662223,-8.48383351694793E-05,0,
00:00:00.68,-0.00809775944799185,0.00596094317734241,-0.00941469334065914,-0.000441156618762761,0,
00:00:00.684,0.00370614370331168,-0.00628012977540493,0.00722901802510023,-0.000428530416684225,0,
00:00:00.688,0.00111387693323195,0.00519563164561987,-0.00172493979334831,-0.000192525360034779,0,
00:00:00.692,-0.000189610931556672,-0.00592706957831979,0.00445631192997098,6.08861519140191E-05,0,
00:00:00.696,-0.00262532662600279,0.00372771336697042,-0.00570809608325362,0.000202101829927415,0,
00:00:00.7,0.00158237072173506,0.000610884220805019,-0.00351957255043089,0.00020763477368746,0,
00:00:00.704,0.00778157496824861,0.00567018194124103,-0.00336134643293917,0.000126081431517377,0,
00:00:00.708,-0.00768586155027151,-0.0148740727454424,0.0194532405585051,2.59608314081561E-05,0,
00:00:00.712,-0.0118856197223067,0.00681881513446569,-0.00785790663212538,-4.31880835094489E-05,0,
00:00:00.716,0.0081441942602396,0.00420301873236895,-0.00634845206514001,-6.49708817945793E-05,0,
00:00:00.72,0.0107770832255483,-0.0121825188398361,0.010904723778367,-0.00212561269290745,0,
00:00:00.724,0.00293971807695925,0.0181896518915892,-0.0182716678828001,0.00195569754578173,0,
00:00:00.728,-0.0079657044261694,-0.00641285255551338,0.00705643184483051,0.00164847553241998,0,
00:00:00.732,-0.00399235170334578,-0.000676986121106893,0.00142906082328409,0.000195924090803601,0,
00:00:00.736,0.00114688626490533,-0.00280003878287971,0.00325933774001896,-0.000824690505396575,0,
00:00:00.74,0.00308254268020391,0.00055305875139311,-0.000483031064504758,-0.00101783650461584,0,
00:00:00.744,-0.00825180020183325,-0.00584997795522213,0.00565119832754135,-0.000629801652394235,0,
00:00:00.748,-0.00662678526714444,0.00357862189412117,-0.00385443679988384,-8.65161418914795E-05,0,
00:00:00.752,0.0163393374532461,0.00852738413959742,-0.00873194169253111,0.000294940284220502,0,
00:00:00.756,0.00975116621702909,-0.00622836733236909,0.00615259166806936,0.000404745806008577,0,
00:00:00.76,-0.00591465830802917,0.00209175399504602,-0.0020598559640348,0.000301101536024362,0,
00:00:00.764,-0.0122663835063577,-0.00087659084238112,0.00095775950467214,0.000113485446490813,0,
00:00:00.768,0.00162416079547256,-0.00749282399192452,0.00756798591464758,-4.42501150246244E-05,0,
00:00:00.772,0.00547660840675235,0.0157081969082356,-0.0156687945127487,-0.000117360905278474,0,
00:00:00.776,-0.00474352296441793,-0.011030612513423,0.0110322022810578,-0.000109755972516723,0,
00:00:00.78,-0.00446261372417212,-0.00122738350182772,0.00120618939399719,-5.82368593313731E-05,0,
00:00:00.784,0.00781816430389881,0.00616988353431225,-0.0061952923424542,-3.14609155793733E-06,0,
00:00:00.788,0.00734650250524282,-0.00825500395148993,0.0103138275444508,3.0392075132113E-05,0,
00:00:00.792,-0.00636950274929404,0.00958309229463339,-0.0136389238759875,-0.00203884486109018,0,
00:00:00.796,-0.00534259621053934,0.000383274105843157,-4.55413028248586E-05,0.00407599192112684,0,
00:00:00.8,0.00343042821623385,-0.0179090667515993,0.0193819813430309,-0.00240190885961056,0,
00:00:00.804,0.00468830345198512,0.0210131872445345,-0.019986879080534,0.000504022056702524,0,
00:00:00.808,-0.00835925713181496,-0.00796524528414011,0.0102288462221622,0.000610813731327653,0,
00:00:00.812,-0.00161249097436666,-0.000580260180868208,-0.00386835588142276,0.0020583679433912,0,
00:00:00.816,0.00493063870817423,0.00529637187719345,-0.00551421288400888,-0.00450110528618097,0,
00:00:00.82,0.00591178145259619,-0.00746048195287585,0.00854052230715752,-0.000144879435538314,0,
00:00:00.824,0.00286755966953933,0.000467413890874013,0.000443084049038589,0.00122029846534133,0,
00:00:00.828,-0.0133987572044134,0.00231232028454542,-0.0020211145747453,0.00312515790574253,0,
00:00:00.832,-0.00176589435432106,0.00356819946318865,-0.00377488485537469,-0.00159396114759147,0,
00:00:00.836,0.0121467178687453,0.000246848416281864,0.00143940944690257,-0.00389548530802131,0,
00:00:00.84,0.000666109146550298,-0.0084700733423233,0.00410970160737634,0.00139236100949347,0,
00:00:00.844,-0.0102456463500857,0.00128895556554198,-0.00107183039654046,0.00214071292430162,0,
00:00:00.848,-0.00417422922328115,0.00758473249152303,-0.00606561126187444,0.00105828524101526,0,
00:00:00.852,0.0113172978162766,-0.00595196196809411,0.00710582686588168,-0.000172549072885886,0,
00:00:00.856,0.0040839952416718,0.00294759450480342,-0.00263785454444587,-0.000810950878076255,0,
00:00:00.86,-0.00609221309423447,0.00200714450329542,-0.000262036744970828,-0.000797195185441524,0,
00:00:00.864,-0.00852055102586746,-0.0111247897148132,0.00652865599840879,-0.000413737987400964,0,
00:00:00.868,0.0141543289646506,0.0160452015697956,-0.0140531416982412,-0.00206681527197361,0,
00:00:00.872,-0.00213348772376776,-0.00773468147963285,0.00499871512874961,0.00223873183131218,0,
00:00:00.876,-0.00931892171502113,-0.00246978993527591,0.00597674679011106,0.00402212841436267,0,
00:00:00.88,0.00326484092511237,0.00452382955700159,-0.00674348277971148,-0.00159859447740018,0,
00:00:00.884,0.00163594295736402,-0.00887981429696083,0.0100014386698604,-0.00243127858266234,0,
00:00:00.888,0.00278204143978655,0.00785301253199577,-0.00459044007584453,-0.00125945406034589,0,
00:00:00.892,-0.00391157204285264,-0.00520996190607548,0.00140132464002818,0.000117593874165323,0,
00:00:00.896,-0.00190735852811486,0.0129879089072347,-0.0110981138423085,-0.00120708264876157,0,
00:00:00.9,0.00525861280038953,-0.00422912603244185,0.000913697702344507,0.00287288054823875,0,
00:00:00.904,0.00463041057810187,-0.0148608600720763,0.0157097671180964,0.00213849800638855,0,
00:00:00.908,-0.00532920379191637,0.00895434338599443,-0.00743208127096295,0.000205083430046216,0,
00:00:00.912,-0.00885148718953133,0.00540499947965145,-0.00461750477552414,-0.00111175689380616,0,
00:00:00.916,0.000841809785924852,-0.00196078652516007,0.00187100353650749,-0.00136009347625077,0,
00:00:00.92,0.0111716045066714,-0.00708397105336189,0.00860473792999983,-0.000859524356201291,0,
00:00:00.924,0.000578960811253637,0.008756791241467,-0.0112879248335958,-0.000152533189975657,0,
00:00:00.928,-0.00926240626722574,-0.00654966663569212,0.00461737113073468,0.00242859683930874,0,
00:00:00.932,0.0051971129141748,0.00253501604311168,-0.00270536332391202,-0.00146510906051844,0,
00:00:00.936,0.00385344494134188,0.00220670434646308,-0.00117748451884836,-0.00332868262194097,0,
00:00:00.94,-0.000698986288625747,-0.000199236426851712,0.00144262460526079,0.00195183709729463,0,
00:00:00.944,-0.00739447074010968,-0.0161568894982338,0.014853616245091,0.00243535451591015,0,
00:00:00.948,-0.00322556449100375,0.0205585602670908,-0.0163873787969351,0.00105791434179991,0,
00:00:00.952,0.0059574618935585,-0.00538074830546975,0.00263221492059529,-0.000352855946402997,0,
00:00:00.956,0.00414722692221403,0.00492303539067507,-0.0028127646073699,-0.00102274038363248,0,
00:00:00.96,-0.0040273112244904,-0.00538348080590367,0.00159743439871818,-0.000938025885261595,0,
00:00:00.964,-0.00249860621988773,-0.00210259109735489,0.00436701904982328,-0.000453174521680921,0,
00:00:00.968,0.00475978525355458,0.0060172425583005,-0.00692308368161321,4.55935660284013E-05,0,
00:00:00.972,0.00235145911574364,-0.00942010805010796,0.00845687929540873,0.000328770169289783,0,
00:00:00.976,-0.00329869845882058,-0.00432968605309725,0.00421952735632658,0.000358415622031316,0,
00:00:00.98,-0.00288309645839036,0.00931435637176037,-0.00877289194613695,0.000224001167225651,0,
00:00:00.984,-0.00484446110203862,0.00643613189458847,-0.00575849693268538,4.99572452099528E-05,0,
00:00:00.988,0.00910224113613367,0.000108757318230346,0.000322691135806963,-7.30839310563169E-05,0,
00:00:00.992,0.000836609047837555,-0.00169735576491803,0.00177124375477433,-0.00218942435458303,0,
00:00:00.996,-0.00600684387609363,-0.0185498166829348,0.018365440890193,0.00188673101365566,0,
00:00:01,0.00429353583604097,0.0141851138323545,-0.014450523070991,0.00160611886531115,0,
00:00:01.004,0.00270794448442757,0.00168148626107723,-0.00188456859905273,0.000187322017154656,0,
00:00:01.008,-0.00509521411731839,-0.00998706463724375,0.00990590546280146,-0.000809858436696231,0,
00:00:01.012,-0.00297092506662011,0.00866928417235613,-0.0086448835209012,-0.000995671493001282,0,
00:00:01.016,NaN,NaN,NaN,NaN,0,
00:00:01.02,NaN,NaN,NaN,NaN,0,
00:00:01.024,-0.15775927901268,-37.0858879089355,35.2488212585449,-41.5903282165527,0,
00:00:01.028,0.145972937345505,35.2828063964844,-33.5346450805664,39.5775604248047,0,
00:00:01.032,0.126670122146606,29.3508682250977,-27.8976593017578,32.8999710083008,0,
00:00:01.036,0.0249416697770357,3.17191433906555,-3.01523518562317,3.54714226722717,0,
00:00:01.04,-0.0659019351005554,-15.0746517181396,14.3288316726685,-16.8850402832031,0,
00:00:01.044,-0.0927373319864273,-18.36838722229,17.4589309692383,-20.5896549224854,0,
00:00:01.048,-0.0470680743455887,-11.2528476715088,10.6947975158691,-12.6339855194092,0,
00:00:01.052,0.000857611070387065,-1.46139597892761,1.38912057876587,-1.6362829208374,0,
00:00:01.056,0.0266384277492762,5.37998485565186,-5.11361026763916,6.03060388565063,0,
00:00:01.06,0.0262944791465998,7.30939102172852,-6.94751691818237,8.19266605377197,0,
00:00:01.064,0.0199713110923767,5.40414428710938,-5.13863086700439,6.05809593200684,0,
00:00:01.068,0.0111346002668142,1.99283766746521,-1.88921344280243,2.25429010391235,0,
00:00:01.072,0.00309127126820385,-0.814769864082336,0.773628294467926,-0.925957143306732,0,
00:00:01.076,-0.0144662065431476,-2.11910462379456,2.01237630844116,-2.38113760948181,0,
00:00:01.08,-0.012637403793633,-1.97794711589813,1.87914037704468,-2.21013498306274,0,
00:00:01.084,-0.00036600066232495,-1.04030406475067,0.988643288612366,-1.16926395893097,0,
00:00:01.088,0.00249655661173165,-0.0408575460314751,0.0389258526265621,-0.0532315000891685,0,
00:00:01.092,-0.00219506188295782,0.542987167835236,-0.515052318572998,0.620443165302277,0,
00:00:01.096,-0.00148940773215145,0.665121674537659,-0.631752789020538,0.749258518218994,0,
00:00:01.1,0.00922087952494621,0.446627527475357,-0.424433588981628,0.498145759105682,0,
00:00:01.104,0.00713024195283651,0.134623542428017,-0.12850821018219,0.137046381831169,0,
00:00:01.108,-0.0053294375538826,-0.118670932948589,0.112751729786396,-0.128051608800888,0,
00:00:01.112,-0.012486700899899,-0.208399295806885,0.19798269867897,-0.229831397533417,0,
00:00:01.116,0.00520900217816234,-0.174249723553658,0.165676683187485,-0.191231682896614,0,
00:00:01.12,0.00572546059265733,-0.0691551640629768,0.0653426349163055,-0.0866569355130196,0,
00:00:01.124,-0.00278261117637157,-0.00137221126351506,0.00198143534362316,0.0117327943444252,0,
00:00:01.128,-0.00222184974700212,0.0634033158421516,-0.0604697465896606,0.064273938536644,0,
00:00:01.132,0.000216092565096915,0.0638738721609116,-0.0608410015702248,0.0674267932772636,0,
00:00:01.136,0.00783099513500929,0.0387025699019432,-0.0369143337011337,0.0403291434049606,0,
00:00:01.14,-0.000259532389463857,0.0031230344902724,-0.00283080316148698,0.00716982781887054,0,
00:00:01.144,-0.00826564617455006,-0.0108014727011323,0.0100932763889432,-0.0152972126379609,0,
00:00:01.148,-0.00205135717988014,-0.0246881805360317,0.023699102923274,-0.0218636933714151,0,
00:00:01.152,0.00148418068420142,-0.037481501698494,0.0367530062794685,-0.0163119044154882,0,
00:00:01.156,0.00453671114519238,0.0138009460642934,-0.0140641303732991,-0.00813404377549887,0,
00:00:01.16,-0.00226032361388206,0.0192103926092386,-0.0190883986651897,0.00659173587337136,0,
00:00:01.164,0.000900400395039469,0.00653803441673517,-0.00624317955225706,0.0061449040658772,0,
00:00:01.168,0.00105855450965464,-0.0104065062478185,0.0106758046895266,0.00453330809250474,0,
00:00:01.172,0.00229558814316988,0.00891628861427307,-0.00877761095762253,4.55833396699745E-05,0,
00:00:01.176,-0.00454832892864943,-0.0118778822943568,0.0118806017562747,0.00191134552005678,0,
00:00:01.18,-0.00245616631582379,6.28305424470454E-05,-0.000140791657031514,0.000341772451065481,0,
00:00:01.184,0.00500261783599854,0.00751843443140388,-0.00761009287089109,-0.00130570703186095,0,
00:00:01.188,0.00260687060654163,-0.00556173082441092,0.00550143280997872,-0.00181456457357854,0,
00:00:01.192,-0.00312094576656818,0.00543420156463981,-0.00337447877973318,-0.00129638356156647,0,
00:00:01.196,-0.00695654843002558,-0.00181156082544476,-0.000147048369399272,-0.00038010865682736,0,
00:00:01.2,0.00325822550803423,-0.0066065015271306,0.00499315792694688,0.000361196405719966,0,
00:00:01.204,0.00839825812727213,0.00931855197995901,-0.00947220902889967,0.000664552382659167,0,
00:00:01.208,-0.00213323743082583,-0.00201388099230826,0.000791064521763474,0.000569315976463258,0,
00:00:01.212,-0.0101447561755776,-0.00753662455826998,0.0105377221480012,0.000274888356216252,0,
00:00:01.216,0.0058968267403543,-0.0014919099630788,0.00375638925470412,-1.30682628878276E-05,0,
00:00:01.22,0.00723067950457335,0.0142493527382612,-0.0119231706485152,-0.000175107532413676,0,
00:00:01.224,-0.00370616163127124,0.00347073469310999,-0.00867040082812309,-0.000194504726096056,0,
00:00:01.228,-0.00873192306607962,-0.0151581624522805,0.0161299556493759,-0.000122334618936293,0,
00:00:01.232,0.0041995020583272,0.000888606358785182,-0.00232986779883504,-2.76438750006491E-05,0,
00:00:01.236,0.00422634137794375,0.0035924413241446,-0.0064819511026144,-0.00203622155822814,0,
00:00:01.24,0.00288157700560987,-0.00451948586851358,0.00685174949467182,0.00411294121295214,0,
00:00:01.244,-0.0119761833921075,0.00549913896247745,-0.00288289063610137,-0.000284988374914974,0,
00:00:01.248,-0.00010019675391959,-0.000551388307940215,0.00161966646555811,-0.00352116650901735,0,
00:00:01.252,0.0110957752913237,0.0034150411374867,-0.0038400050252676,0.000949968409258872,0,
00:00:01.256,0.00278407917357981,-0.00162169185932726,0.000523601600434631,0.00143922388087958,0,
00:00:01.26,-0.00908295344561338,-0.00246407859958708,0.00148880272172391,0.00263244635425508,0,
00:00:01.264,-0.000507721328176558,-0.00761904567480087,0.00717056170105934,-0.00227882876060903,0,
00:00:01.268,0.00187565654050559,0.0141980582848191,-0.0141237117350101,-0.00228799018077552,0,
00:00:01.272,0.00560684315860271,-0.00634150579571724,0.00670131156221032,-0.00277093984186649,0,
00:00:01.276,-0.00570119963958859,-0.0011852866737172,0.0036386726424098,0.00471143890172243,0,
00:00:01.28,-0.00386422709561884,0.00683371163904667,-0.00858100410550833,0.000809548597317189,0,
00:00:01.284,0.00464917533099651,-0.00933229364454746,0.0056578335352242,-0.00265865633264184,0,
00:00:01.288,0.00106236676219851,-0.00480967946350574,0.00860065966844559,0.00126586458645761,0,
00:00:01.292,-0.000356306729372591,0.0149147920310497,-0.016602473333478,0.00127534370403737,0,
00:00:01.296,-0.00476730382069945,-0.00823186337947845,0.0117539307102561,0.000169895298313349,0,
00:00:01.3,0.00564041128382087,0.00710391765460372,-0.0078613730147481,-0.000660340359900147,0,
00:00:01.304,0.00538500072434545,-0.00780248921364546,0.00417165830731392,-0.000834358623251319,0,
00:00:01.308,-0.0071925912052393,0.00196841545403004,0.00119466090109199,-0.000527895870618522,0,
00:00:01.312,-0.00715556042268872,0.000135613518068567,-0.000480302347568795,-8.36781837278977E-05,0,
00:00:01.316,0.00413628434762359,-0.00208491878584027,0.00111510534770787,0.000234983628615737,0,
00:00:01.32,0.00908754207193851,0.0021986560896039,-0.0047489064745605,-0.00174350140150636,0,
00:00:01.324,-0.00403384538367391,0.00403903750702739,-0.00193564291112125,0.00222721137106419,0,
00:00:01.328,-0.00421533081680536,-0.00780399143695831,0.00986881647258997,0.00381668447516859,0,
00:00:01.332,0.001209044479765,0.0117826415225863,-0.0112189976498485,-0.00183065677993,0,
00:00:01.336,0.00588744087144732,-0.00843915063887835,0.00984812900424004,-0.00257983873598278,0,
00:00:01.34,-0.0012371800839901,-0.00203445577062666,-0.00100622605532408,-0.00337136536836624,0,
00:00:01.344,-0.00772499619051814,0.00501634506508708,-0.00744343874976039,0.00421377969905734,0,
00:00:01.348,-0.00494630169123411,-0.00866264849901199,0.00824372656643391,0.000608630711212754,0,
00:00:01.352,0.00857986696064472,0.00782413501292467,-0.00677675288170576,-0.00258499942719936,0,
00:00:01.356,0.00627309130504727,0.0008862892864272,-0.00154370896052569,0.00147646642290056,0,
00:00:01.36,-0.00372967938892543,-0.00757878879085183,0.0105222407728434,0.00147940521128476,0,
00:00:01.364,-0.00145008275285363,0.0108637120574713,-0.00897619593888521,0.000284099514828995,0,
00:00:01.368,-0.000625677115749568,-0.0035649596247822,0.00550937931984663,-0.000647158420179039,0,
00:00:01.372,0.00387215241789818,-0.00429681176319718,0.000965654850006104,-0.000885762856341898,0,
00:00:01.376,-0.00608987547457218,0.00726250791922212,-0.010350625962019,-0.000594983343034983,0,
00:00:01.38,-0.00329851265996695,-0.00841475650668144,0.00534563139081001,-0.000131148641230538,0,
00:00:01.384,0.00342014571651816,-0.00652015069499612,0.011361668817699,0.000219349545659497,0,
00:00:01.388,0.00780611298978329,0.0187695194035769,-0.0176318045705557,0.000341961334925145,0,
00:00:01.392,-0.00454282155260444,-0.008978764526546,0.00870057195425034,-0.00180357112549245,0,
00:00:01.396,-0.00396603206172585,0.00116678467020392,-0.00379127520136535,0.00416777189821005,0,
00:00:01.4,-0.00032698773429729,-0.000816662039142102,0.00243303761817515,-0.000356964592356235,0,
00:00:01.404,0.0103555014356971,-0.00293984240852296,0.00656552379950881,-0.00156044377945364,0,
00:00:01.408,-0.00559994112700224,0.00588054722175002,-0.00759917078539729,-0.00319198588840663,0,
00:00:01.412,-0.00744352582842112,-0.00616596871986985,0.00380547158420086,0.00173477665521204,0,
00:00:01.416,0.00528800813481212,0.00548294046893716,-0.00660458113998175,0.00203117378987372,0,
00:00:01.42,0.00841717142611742,0.00266655790619552,-0.00243874406442046,0.000749281956814229,0,
00:00:01.424,-0.00588751398026943,-0.0185382142663002,0.0194500517100096,-0.000428479659603909,0,
00:00:01.428,-0.00999018363654613,0.0182632580399513,-0.0173818245530128,-0.000896877376362681,0,
00:00:01.432,0.00249664019793272,-0.00596143025904894,0.00641349470242858,0.00134659034665674,0,
00:00:01.436,0.00741997826844454,0.00364463194273412,-0.00365857756696641,-0.0043268408626318,0,
00:00:01.44,-0.00059223803691566,0.0040396535769105,-0.00433122832328081,0.000466139608761296,0,
00:00:01.444,-0.00123126176185906,-0.00758298626169562,0.00724905636161566,0.00179255951661617,0,
00:00:01.448,0.00196981406770647,-0.00480595603585243,0.00458851456642151,0.00132630718871951,0,
00:00:01.452,0.00278643891215324,0.0068025984801352,-0.00685928110033274,0.00034977839095518,0,
00:00:01.456,0.00119435030501336,-0.000285466201603413,0.000346953223925084,-0.000385100691346452,0,
00:00:01.46,-0.00928524788469076,-0.00134505610913038,0.00144924037158489,-0.000631344795692712,0,
00:00:01.464,-0.00476829847320914,-0.00457708165049553,0.00466152839362621,-0.000484939111629501,0,
00:00:01.468,0.00790166575461626,0.00443718302994967,-0.00440051406621933,-0.000177922236616723,0,
00:00:01.472,0.000939254881814122,0.0102769322693348,-0.010283931158483,8.54197423905134E-05,0,
00:00:01.476,-0.00268275057896972,-0.0112830977886915,0.0112535804510117,0.000206368189537898,0,
00:00:01.48,-0.00456632673740387,-0.000601565989200026,0.000571564363781363,0.000190042352187447,0,
00:00:01.484,0.0118880653753877,0.002096236217767,-0.00211363146081567,9.94605870801024E-05,0,
00:00:01.488,0.00562951620668173,0.00559915415942669,-0.00560170412063599,3.93987465940882E-06,0,
00:00:01.492,-0.00943184643983841,-0.0038311411626637,0.00383836915716529,-5.35926265001763E-05,0,
00:00:01.496,-0.00733083579689264,-0.00813762005418539,0.00814746133983135,-6.42382437945344E-05,0,
00:00:01.5,0.00311854365281761,0.00279516982845962,-0.00278802728280425,-4.28934945375659E-05,0,
00:00:01.504,0.00346556515432894,0.0107510862872005,-0.00867281015962362,-1.20015574793797E-05,0,
00:00:01.508,-0.00313879060558975,-0.00974614545702934,0.00569374952465296,-0.00206456892192364,0,
00:00:01.512,-0.00110378826502711,0.00293328729458153,-0.00260296184569597,0.00199528899975121,0,
00:00:01.516,0.00166937033645809,-0.00328540662303567,0.0047477544285357,0.00165855162777007,0,
00:00:01.52,0.0108433282002807,0.00996291730552912,-0.00894448533654213,0.000184432952664793,0,
00:00:01.524,-0.00414711283519864,-0.00732653308659792,0.00751143461093307,-0.000843847286887467,0,
00:00:01.528,-0.012484023347497,-0.00102582504041493,0.000629545364063233,-0.00103324244264513,0,
00:00:01.532,0.00278499210253358,-0.00113718025386333,0.000589192379266024,-0.000636394368484616,0,
00:00:01.536,0.00949447695165873,0.00912169925868511,-0.00950376596301794,-8.51220174808986E-05,0,
00:00:01.54,-0.00113016506657004,-0.00604373821988702,0.00593597814440727,0.000300406682072207,0,
00:00:01.544,-0.00559992250055075,-0.0091770738363266,0.00928343739360571,0.0004102457605768,0,
00:00:01.548,-0.00232720235362649,0.0141503876075149,-0.013960825279355,0.000304258603136986,0,
00:00:01.552,0.00756386248394847,-0.00778516847640276,0.00794356130063534,0.000113916205009446,0,
00:00:01.556,0.00101674336474389,0.00350075145252049,-0.00135223905090243,-4.55988410976715E-05,0,
00:00:01.56,-0.00670447666198015,0.00265310797840357,-0.00671263737604022,-0.000119171010737773,0,
00:00:01.564,-0.00730554386973381,-0.00274044158868492,0.00302147399634123,-0.00011105840530945,0,
00:00:01.568,0.0117135560140014,0.00364322098903358,-0.000157887712703086,-5.86829446547199E-05,0,
00:00:01.572,0.00508436048403382,-0.010784381069243,0.0077195237390697,-2.89975082523597E-06,0,
00:00:01.576,-0.00561348209157586,-0.0043091606348753,0.00482101645320654,3.09375536744483E-05,0,
00:00:01.58,-0.00450843712314963,0.014247122220695,-0.0131668904796243,-0.00203835871070623,0,
00:00:01.584,0.00353952939622104,-0.00708584813401103,0.00757462345063686,0.00407623453065753,0,
00:00:01.588,0.00426486413925886,0.0154155120253563,-0.0135240042582154,-0.000326132751069963,0,
00:00:01.592,-0.0109502226114273,-0.0121581153944135,0.00760714523494244,-0.00354722701013088,0,
00:00:01.596,-0.002012844895944,-0.000519395864102989,0.000408332562074065,0.000943926221225411,0,
00:00:01.6,0.0126884365454316,-0.000964761013165116,0.0022316793911159,0.00144748529419303,0,
00:00:01.604,0.00603820662945509,-0.000107837673567701,0.00324916606768966,0.000569744675885886,0,
00:00:01.608,-0.00698218727484345,0.00275058206170797,-0.00644003879278898,-0.000293228571536019,0,
00:00:01.612,-0.00900302641093731,-0.00108092068694532,0.00119839503895491,-0.000641721999272704,0,
00:00:01.616,-0.00460413051769137,-0.00723747164011002,0.0103370267897844,-0.000519250810611993,0,
00:00:01.62,0.0112712103873491,0.014241348952055,-0.0155605897307396,-0.000186174496775493,0,
00:00:01.624,0.00676078489050269,-0.012676453217864,0.00899471808224916,0.000111493347503711,0,
00:00:01.628,-0.011403108946979,0.0128600709140301,-0.011410653591156,0.000249495758907869,0,
00:00:01.632,-0.00147530692629516,-0.00671488558873534,0.00879711378365755,0.000228423930821009,0,
00:00:01.636,0.00933110062032938,-0.00149117060936987,0.00453142216429114,0.000120137199701276,0,
00:00:01.64,-0.000436215195804834,0.00651389406993985,-0.00872972048819065,5.91443676967174E-06,0,
00:00:01.644,-0.00527751864865422,-0.00953999441117048,0.00706731248646975,-6.32776136626489E-05,0,
00:00:01.648,-0.000435952126281336,-0.00898782536387444,0.00595693942159414,-7.6589552918449E-05,0,
00:00:01.652,0.00102967862039804,0.0210593398660421,-0.0186203960329294,-5.15339124831371E-05,0,
00:00:01.656,0.00299177807755768,-0.00675257248803973,0.0115362331271172,-1.47900200317963E-05,0,
00:00:01.66,-0.00371738313697279,0.00387847074307501,-0.00476909894496202,1.3024327927269E-05,0,
00:00:01.664,0.000192864812561311,-0.00554875377565622,0.0034486937802285,2.3682187020313E-05,0,
00:00:01.668,0.00114386493805796,-0.00373236392624676,0.000341164151905105,-0.00205604382790625,0,
00:00:01.672,0.00491262273862958,0.00857389438897371,-0.00467621022835374,0.00198427075520158,0,
00:00:01.676,-0.00800958927720785,-0.00532470969483256,0.00349821802228689,0.00371661758981645,0,
00:00:01.68,-0.00382739305496216,-0.0102060530334711,0.0114395637065172,-0.00180490990169346,0,
00:00:01.684,0.00852936320006847,0.0127072250470519,-0.0116233611479402,-0.00249172793701291,0,
00:00:01.688,0.00515214214101434,0.00631901808083057,-0.00623728940263391,-0.0032846056856215,0,
00:00:01.692,-0.00294407457113266,-0.00113836477976292,0.000515194144099951,0.00218675867654383,0,
00:00:01.696,-0.00419050082564354,-0.00475929584354162,0.00401789834722877,0.002589589683339,0,
00:00:01.7,-0.00232913647778332,-0.010608677752316,0.0122347539290786,0.00111084699165076,0,
00:00:01.704,0.00204079342074692,0.00191828503739089,-0.00602341955527663,-0.00035048887366429,0,
00:00:01.708,-0.00064835645025596,0.00536389462649822,-0.00273529533296824,-0.00102563726250082,0,
00:00:01.712,-0.00428161630406976,0.00808347854763269,-0.0103745954111218,-0.0009272126480937,0,
00:00:01.716,0.00263031339272857,-0.00287776673212647,0.00652343314141035,-0.000430807413067669,0,
00:00:01.72,0.0104219280183315,-0.0126869538798928,0.0103655131533742,6.89162479829974E-05,0,
00:00:01.724,0.000784339616075158,0.0139917731285095,-0.013069873675704,0.00241997116245329,0,
00:00:01.728,-0.0066633322276175,-0.00525906914845109,0.00834995042532682,-0.00368797732517123,0,
00:00:01.732,-0.00520977005362511,0.00165260583162308,-0.00346721312962472,0.000553829129785299,0,
00:00:01.736,-0.00538524519652128,0.000780259550083429,-0.00293567311018705,0.00150821241550148,0,
00:00:01.74,0.00777769042178988,-0.00117547938134521,0.000323711428791285,0.000940875557716936,0,
00:00:01.744,0.00189355027396232,-0.0143140144646168,0.0147122368216515,6.84542537783273E-05,0,
00:00:01.748,0.0047083143144846,0.0168284960091114,-0.0158915389329195,-0.000485512660816312,0,
00:00:01.752,0.000497003085911274,-0.00453691277652979,0.00326432008296251,-0.00265880371443927,0,
00:00:01.756,-0.00512044969946146,0.00886467657983303,-0.00447025708854198,0.00368071626871824,0,
00:00:01.76,-0.00381788751110435,-0.00617638975381851,0.00574773503467441,-0.000407070707296953,0,
00:00:01.764,-0.00692400988191366,-0.00775923300534487,0.00597161240875721,-0.00132623454555869,0,
00:00:01.768,0.0116103133186698,0.00509089510887861,-0.00850877165794373,-0.00288842222653329,0,
00:00:01.772,0.0072369072586298,0.0041885869577527,-0.000508272554725409,0.0019501622300595,0,
00:00:01.776,-0.00524720503017306,-0.00190272007603198,0.00193951546680182,0.00210312218405306,0,
00:00:01.78,-0.00992948934435844,-0.00245538121089339,0.0016166326822713,0.00278242630884051,0,
00:00:01.784,0.00176142249256372,0.00523331807926297,-0.00576526159420609,-0.00457087764516473,0,
00:00:01.788,0.0085343774408102,0.000747188401874155,-0.000747859885450453,-0.000644148443825543,0,
00:00:01.792,-0.00321956141851842,-0.0284607727080584,0.0287780072540045,0.000696128525305539,0,
00:00:01.796,0.00113010127097368,0.0153195392340422,-0.0149742476642132,0.000745279830880463,0,
00:00:01.8,-0.00606747018173337,0.019345436245203,-0.0191529002040625,0.000342396786436439,0,
00:00:01.804,0.00468067266047001,-0.000576550548430532,0.000583294546231627,-4.17810842918698E-05,0,
00:00:01.808,0.00131323793902993,-0.000318997888825834,0.000206596610951237,-0.000224735631491058,0,
00:00:01.812,-0.00459967087954283,-0.00930577423423529,0.00916829146444798,-0.000213629551581107,0,
00:00:01.816,0.00507534900680184,-0.0152455735951662,0.0130751170217991,-0.000101461089798249,0,
00:00:01.82,0.00474864384159446,0.0106459688395262,-0.00870020315051079,1.52870798046933E-05,0,
00:00:01.824,-0.00961984228342772,0.00735876616090536,-0.00569566385820508,8.0624595284462E-05,0,
00:00:01.828,-0.00311657763086259,-0.000706830469425768,0.00300124916248024,8.57391642057337E-05,0,
00:00:01.832,0.00607779016718268,0.00363936182111502,-0.00642165215685964,5.24561510246713E-05,0,
00:00:01.836,0.00588596891611815,-0.00972097460180521,0.00706831505522132,1.06086426967522E-05,0,
00:00:01.84,-0.00653632543981075,-0.00945536140352488,0.0086465161293745,-0.00209419336169958,0,
00:00:01.844,-0.00660909106954932,0.0118551962077618,-0.0111055057495832,0.00402359943836927,0,
00:00:01.848,0.00645713228732347,0.000401081138988957,0.000915126584004611,-0.000354309740941972,0,
00:00:01.852,0.0049794758670032,0.00608113268390298,-0.0050493567250669,-0.00147323275450617,0,
00:00:01.856,-0.00185166962910444,0.00148112594615668,-0.00109871651511639,-0.00101698946673423,0,
00:00:01.86,-0.0070414706133306,-0.00526193156838417,0.0050760805606842,-0.000176873858436011,0,
00:00:01.864,0.00241142697632313,-0.0108769042417407,0.0104258758947253,0.000404708727728575,0,
00:00:01.868,0.00542501453310251,0.0126786381006241,-0.0130968783050776,-0.00152275001164526,0,
00:00:01.872,0.00140554120298475,-0.00605133408680558,0.00582953868433833,0.00443406449630857,0,
00:00:01.876,-0.00429858779534698,-0.00204888987354934,0.00203644344583154,-0.000227433556574397,0,
00:00:01.88,-0.00746670225635171,0.00377041893079877,-0.00365526997484267,-0.00157410383690149,0,
00:00:01.884,0.00338660459965467,0.00716836517676711,-0.0070280390791595,-0.00121137616224587,0,
00:00:01.888,0.0109133599326015,-0.00967318937182426,0.00976802129298449,-0.00241982867009938,0,
00:00:01.892,-0.00576497334986925,0.00964263919740915,-0.00961510092020035,0.00229997676797211,0,
00:00:01.896,-0.00544239860028028,-0.0133658582344651,0.0133422408252954,0.00427595758810639,0,
00:00:01.9,-0.000740356859751046,0.0086225401610136,-0.00866591464728117,-0.00136263086460531,0,
00:00:01.904,0.00671092420816422,-0.00287230382673442,0.00283601321280003,-0.00232102489098907,0,
00:00:01.908,0.0012320876121521,-0.00235551805235446,0.00233896123245358,-0.00127766421064734,0,
00:00:01.912,-0.00347156845964491,0.0068960040807724,-0.00689390720799565,2.84315829048865E-05,0,
00:00:01.916,0.000119561475003138,-0.00152496783994138,0.00153707363642752,0.000774792220909148,0,
00:00:01.92,0.00256757019087672,-0.0110621834173799,0.0110749434679747,0.000840654189232737,0,
00:00:01.924,8.48749987198971E-05,0.0169915277510881,-0.0169838666915894,-0.00159029965288937,0,
00:00:01.928,-0.00815592892467976,-0.00711935153231025,0.00919651985168457,0.00202395766973495,0,
00:00:01.932,-0.000339199876179919,-0.0024381869006902,-0.00161579193081707,0.00140325271058828,0,
00:00:01.936,0.00990340858697891,0.00418745959177613,-0.00178253499325365,-0.000132512766867876,0,
00:00:01.94,0.00206344504840672,-0.000967073137871921,-0.00162211980205029,-0.00106289202813059,0,
00:00:01.944,-0.0111288521438837,-0.0168909449130297,0.0182428415864706,-0.00110171758569777,0,
00:00:01.948,-0.00012119926395826,0.0205980315804482,-0.0189476553350687,-0.000587598246056587,0,
00:00:01.952,0.0101802321150899,-0.00480953650549054,0.005433464422822,1.12945635919459E-05,0,
00:00:01.956,0.00379386404529214,0.00554716121405363,-0.00591002404689789,0.000383300211979076,0,
00:00:01.96,-0.00960784964263439,-0.0029537498485297,0.0021746230777353,0.000449662649771199,0,
00:00:01.964,-0.008307876996696,-0.00613642716780305,0.00547964684665203,0.000301342573948205,0,
00:00:01.968,0.00853305961936712,0.00407133204862475,-0.00434777094051242,8.7508509750478E-05,0,
00:00:01.972,0.00608124025166035,-0.00415770569816232,0.00423926068469882,-7.43956115911715E-05,0,
00:00:01.976,-0.0126460921019316,-0.00589712057262659,0.00616202317178249,-0.000136992937768809,0,
00:00:01.98,0.00180275982711464,0.0120262736454606,-0.0117636676877737,-0.00011480571993161,0,
00:00:01.984,0.0119367046281695,0.00887294113636017,-0.00872269924730062,-5.25891155120917E-05,0,
00:00:01.988,0.00213207793422043,-0.0142685249447823,0.0142891462892294,6.33195531918318E-06,0,
00:00:01.992,-0.00623859697952867,-9.49978348216973E-05,3.11156109091826E-05,3.80389647034463E-05,0,
00:00:01.996,-0.0117551358416677,0.000307189970044419,-0.000393050402635708,4.02265941374935E-05,0,
00:00:02,0.00618940778076649,-0.00114954903256148,0.00108768104109913,2.4219676561188E-05,0,
00:00:02.004,0.00840891152620316,0.00511139119043946,-0.00305690383538604,-0.00207132799550891,0,
00:00:02.008,-0.00255097588524222,0.00453711859881878,-0.00857665855437517,0.00404208060353994,0,
00:00:02.012,-0.008094715885818,-0.0114390812814236,0.0117981601506472,-0.000346306274877861,0,
00:00:02.016,0.00426051951944828,0.00349927367642522,-0.00201122998259962,-0.00147477793507278,0,
00:00:02.02,0.00600222265347838,0.00412804307416081,-0.0030967437196523,-0.00102344620972872,0,
00:00:02.024,-0.00570131745189428,-0.00753689557313919,0.00772163458168507,-0.00225920509546995,0,
00:00:02.028,-0.00172759906854481,0.0102636879310012,-0.0106676807627082,0.00445202086120844,0,
00:00:02.032,-0.00343330926261842,-0.00591678684577346,0.00535998260602355,0.000219203604501672,0,
00:00:02.036,0.00957979820668697,-0.000100143013696652,-0.000287597678834572,-0.00315623753704131,0,
00:00:02.04,0.000436281698057428,0.00518504530191422,-0.00321842473931611,0.00106354581657797,0,
00:00:02.044,-0.00675444584339857,0.000672842725180089,-0.00461587915197015,0.00134960387367755,0,
00:00:02.048,-0.000464252370875329,-0.0199254043400288,0.0204510316252708,0.00245882687158883,0,
00:00:02.052,0.0105691598728299,0.0159861221909523,-0.0143605023622513,-0.00242859614081681,0,
00:00:02.056,-0.00151955056935549,-0.00128861190751195,0.00445783603936434,-0.00236008106730878,0,
00:00:02.06,-0.0116736879572272,0.00413286732509732,-0.00800771359354258,-0.00069103657733649,0,
00:00:02.064,-0.00240387138910592,0.00313748558983207,-0.00325431954115629,0.000707236642483622,0,
00:00:02.068,0.00984408333897591,-0.000146811638842337,0.00308245234191418,-0.000881161249708384,0,
00:00:02.072,0.0011276617879048,-0.0213579181581736,0.0199857335537672,0.00288987765088677,0,
00:00:02.076,-0.00163402163889259,0.00202299538068473,-0.0056702084839344,0.00195954809896648,0,
00:00:02.08,-0.00570820458233356,0.0201190076768398,-0.0185987614095211,-1.54123317770427E-05,0,
00:00:02.084,0.00750915193930268,-0.00411556661128998,0.00625945720821619,-0.00126345036551356,0,
00:00:02.088,0.00371018424630165,-0.00787743087857962,0.00887174252420664,-0.00140697148162872,0,
00:00:02.092,-0.0104814851656556,0.0152225503697991,-0.0133888460695744,-0.000825122464448214,0,
00:00:02.096,-0.0050702253356576,-0.0120736323297024,0.00924841407686472,-8.53814344736747E-05,0,
00:00:02.1,0.00668145203962922,-0.00441964296624064,-9.75717121036723E-05,0.000410305103287101,0,
00:00:02.104,0.0101832691580057,0.00952566880732775,-0.00604408979415894,-0.00153839669656008,0,
00:00:02.108,-0.00233650323934853,-0.00870840158313513,0.00717730540782213,0.00443802867084742,0,
00:00:02.112,-0.00934287533164024,0.00426487065851688,-0.00244544656015933,-0.000198164460016415,0,
00:00:02.116,0.00263231759890914,0.00374947697855532,-0.00218678941018879,-0.00153442984446883,0,
00:00:02.12,0.00490002846345305,-0.00616693729534745,0.00643628183752298,-0.0011788533302024,0,
00:00:02.124,-0.00596509966999292,-0.000523863302078098,-0.000177342648385093,-0.000328120979247615,0,
00:00:02.128,-0.00342331570573151,0.0105814589187503,-0.0115307541564107,0.000324569031363353,0,
00:00:02.132,0.00538570573553443,-0.00551272090524435,0.00694041047245264,0.000548846845049411,0,
00:00:02.136,0.00372137525118887,-0.00962103623896837,0.00540666747838259,-0.00165081419982016,0,
00:00:02.14,-0.00418952060863376,0.0112485885620117,-0.00863074976950884,0.00213212496601045,0,
00:00:02.144,-0.00246787257492542,0.00599377369508147,-0.00615781638771296,0.00156724092084914,0,
00:00:02.148,0.00278780097141862,-0.0110902804881334,0.0107503877952695,0.00207103532738984,0,
00:00:02.152,0.00441194837912917,-0.0153851509094238,0.0155185218900442,-0.00298592308536172,0,
00:00:02.156,0.00252359779551625,0.0170289594680071,-0.0186786074191332,-0.00275790132582188,0,
00:00:02.16,-0.0108291804790497,0.0122358463704586,-0.00780184054747224,-0.000811535166576505,0,
00:00:02.164,-0.000911800598260015,-0.0106500927358866,0.00838963687419891,-0.00126768252812326,0,
00:00:02.168,0.00286465813405812,-0.0123950960114598,0.0148962289094925,0.00336059532128274,0,
00:00:02.172,0.00289335916750133,0.0119354659691453,-0.0134927723556757,0.00271947146393359,0,
00:00:02.176,0.00136322109028697,0.0103482380509377,-0.0142699722200632,0.000571813143324107,0,
00:00:02.18,-0.00225082272663713,-0.0111570805311203,0.0123982504010201,-0.00104099093005061,0,
00:00:02.184,0.00306844455190003,-0.010184564627707,0.0142505541443825,-0.00150022003799677,0,
00:00:02.188,0.00281343958340585,0.0165910460054874,-0.0175632759928703,-0.00106645363848656,0,
00:00:02.192,-0.00598058616742492,-0.00716832699254155,0.00540303112939,-0.000311244133627042,0,
00:00:02.196,-0.00850775185972452,-0.0039974176324904,0.00103842932730913,0.00028987429686822,0,
00:00:02.2,0.00368813355453312,0.00895794201642275,-0.00476082693785429,0.000530136108864099,0,
00:00:02.204,0.0119469463825226,-0.00491529563441873,0.005254574585706,0.00044894334860146,0,
00:00:02.208,-0.00687198480591178,-0.00799308717250824,0.00717822136357427,0.000211010294151492,0,
00:00:02.212,-0.00508906552568078,0.0147458175197244,-0.0154420109465718,-1.79961280082352E-05,0,
00:00:02.216,0.00486708106473088,-0.00784163922071457,0.00762915471568704,-0.000144036384881474,0,
00:00:02.22,0.0123925749212503,0.00721778674051166,-0.00705305999144912,-0.00223169266246259,0,
00:00:02.224,-0.00948979239910841,-0.00592518830671906,0.00414075702428818,0.00395514909178019,0,
00:00:02.228,-0.0149514023214579,-0.00652295583859086,0.0107928831130266,-0.000353002425981686,0,
00:00:02.232,0.00836201384663582,0.00838297512382269,-0.00864774733781815,-0.0014317047316581,0,
00:00:02.236,0.0127753503620625,0.000765404372941703,-0.00228683697059751,-0.00304556405171752,0,
00:00:02.24,-0.00175680639222264,-0.00574070308357477,0.00461202021688223,0.00182869483251125,0,
00:00:02.244,-0.0144649473950267,0.00670386431738734,-0.00905891600996256,0.0020540866535157,0,
00:00:02.248,0.00118258502334356,-0.00526060489937663,0.00758709665387869,0.00279663340188563,0,
00:00:02.252,0.00940063316375017,0.00134549546055496,0.000847455987241119,-0.00452581141144037,0,
00:00:02.256,-0.000235815576161258,0.0039158659055829,-0.00332701532170177,-0.000600373663473874,0,
00:00:02.26,-0.00666381884366274,0.000544248090591282,0.000829239026643336,0.000720367243047804,0,
00:00:02.264,0.00021123634360265,-0.000200301146833226,-0.00288863247260451,0.000747697427868843,0,
00:00:02.268,0.00713206874206662,-0.0109806098043919,0.00852289609611034,0.000331023271428421,0,
00:00:02.272,0.0048856963403523,-0.00353149836882949,0.00310763320885599,-5.6330220104428E-05,0,
00:00:02.276,-0.00831247121095657,0.0148374177515507,-0.0137768443673849,-0.000234890554565936,0,
00:00:02.28,-0.00801835022866726,-0.00695639755576849,0.00631749769672751,-0.000216851913137361,0,
00:00:02.284,0.00799599103629589,0.0131520144641399,-0.00811897777020931,-9.92447094176896E-05,0,
00:00:02.288,0.00531764980405569,-0.00837048515677452,0.00621203938499093,-0.00205604778602719,0,
00:00:02.292,-0.00693776179105043,-0.00102307868655771,0.00329863559454679,0.00413556629791856,0,
00:00:02.296,-0.00423832330852747,-0.00245748297311366,0.000585837697144598,-0.000245704577537254,0,
00:00:02.3,-0.00109918450471014,0.00102380639873445,-0.00309725222177804,-0.00141267280559987,0,
00:00:02.304,0.0118805849924684,-0.00968118943274021,0.00887005589902401,-0.0030861624982208,0,
00:00:02.308,0.00320012914016843,0.0159351751208305,-0.0155419511720538,0.00177067762706429,0,
00:00:02.312,-0.00940096378326416,-0.00652496051043272,0.0053727044723928,0.00201077992096543,0,
00:00:02.316,-0.00117979396600276,0.00769719993695617,-0.00284021953120828,0.000704727717675269,0,
00:00:02.32,0.00545844342559576,-0.00413952954113483,0.00417055794969201,-0.000468028098111972,0,
00:00:02.324,-0.00272622983902693,-0.00495037110522389,0.00341818016022444,-0.000916513206902891,0,
00:00:02.328,-0.00494397198781371,-0.00808905996382236,0.0067696264013648,-0.000728747399989516,0,
00:00:02.332,0.00139596441294998,0.00905322562903166,-0.0095492722466588,-0.000263744528638199,0,
00:00:02.336,0.00911334156990051,0.00935682654380798,-0.00914574600756168,0.000146457154187374,0,
00:00:02.34,-0.00609473418444395,-0.00526074133813381,0.00577611243352294,0.00033624900970608,0,
00:00:02.344,-0.00469238217920065,-0.00533010717481375,0.00578264240175486,0.000308625807520002,0,
00:00:02.348,-0.00181873538531363,0.000748454011045396,-0.00054020865354687,0.000162212963914499,0,
00:00:02.352,0.0114027382805943,0.00807749759405851,-0.00810894928872585,7.66271296015475E-06,0,
00:00:02.356,0.00308028585277498,-0.0090681379660964,0.00890638586133718,-8.58615676406771E-05,0,
00:00:02.36,-0.00719379493966699,0.0010478236945346,-0.00121787958778441,-0.000103709629911464,0,
00:00:02.364,-0.00502016907557845,-0.00191561470273882,0.00388893554918468,-6.96643910487182E-05,0,
00:00:02.368,0.0038747584912926,0.00674507254734635,-0.00873948540538549,-0.00209565996192396,0,
00:00:02.372,0.00284566427581012,-0.00139911670703441,-0.00228086207062006,0.00406884727999568,0,
00:00:02.376,-0.00428812764585018,-0.0106984144076705,0.0125516038388014,-0.00237694825045764,0,
00:00:02.38,-0.002028938382864,0.0131772980093956,-0.0106511991471052,0.00053703086450696,0,
00:00:02.384,0.00545807695016265,-0.000953579903580248,0.00217389524914324,0.000634348136372864,0,
00:00:02.388,0.00495990505442023,0.00087855919264257,-0.0010968140559271,-9.52849859459093E-06,0,
00:00:02.392,-0.00714296195656061,-0.00133109267335385,0.000368953449651599,0.00162112130783498,0,
00:00:02.396,-0.00885000173002481,-0.00475025689229369,0.00380357913672924,-0.00246347114443779,0,
00:00:02.4,0.00856851227581501,-0.0106173874810338,0.0121945887804031,-0.00189556705299765,0,
00:00:02.404,0.0110032018274069,0.0128283025696874,-0.0168811902403831,-0.00222755922004581,0,
00:00:02.408,-0.00545380543917418,0.00700261257588863,-0.00636873813346028,0.00301465811207891,0,
00:00:02.412,-0.0173400267958641,-0.0024343600962311,0.00425294134765863,0.00496756192296743,0,
00:00:02.416,0.00899169314652681,-0.00437258090823889,0.00562724377959967,-0.00309748691506684,0,
00:00:02.42,0.0114264907315373,-0.00275909807533026,0.003009362379089,-0.000387266365578398,0,
00:00:02.424,-0.00185261643491685,0.00787790399044752,-0.00626084255054593,9.83603385975584E-05,0,
00:00:02.428,-0.00721811084076762,-0.00679135648533702,0.00415769079700112,-8.72075761435553E-05,0,
00:00:02.432,-0.00361690833233297,-0.0237764976918697,0.0195855908095837,-0.000254927668720484,0,
00:00:02.436,0.00708270724862814,0.0243021510541439,-0.0205764975398779,-0.000233618338825181,0,
00:00:02.44,-0.000840272579807788,0.0228712446987629,-0.0222491845488548,-9.02073661563918E-05,0,
00:00:02.444,-0.00419088779017329,-0.0156194046139717,0.0133267864584923,5.75125486648176E-05,0,
00:00:02.448,-0.00101892079692334,-0.0146087231114507,0.0163853541016579,0.000134727772092447,0,
00:00:02.452,0.00819300673902035,0.013538415543735,-0.0119078736752272,0.000130231084767729,0,
00:00:02.456,-0.00111556274350733,-0.00833772774785757,0.0106813590973616,7.55037181079388E-05,0,
00:00:02.46,-0.00724136177450418,-0.00156877841800451,-0.00324476743116975,-0.00206313328817487,0,
00:00:02.464,0.00206928653642535,0.00182593695353717,-0.000430133659392595,0.00402210326865315,0,
00:00:02.468,0.00316935195587575,0.0024746332783252,-0.00573715660721064,-0.00037404548493214,0,
00:00:02.472,0.00754076894372702,0.00365226506255567,-0.00245043425820768,-0.00357092637568712,0,
00:00:02.476,-0.00857595354318619,-0.00166853878181428,0.00563787529245019,0.000944533327128738,0,
00:00:02.48,-0.00849027931690216,-0.00844870507717133,0.00540209049358964,0.00146201741881669,0,
00:00:02.484,0.0059622609987855,0.0132079822942615,-0.0108588887378573,0.000586159760132432,0,
00:00:02.488,0.00561673752963543,-0.00483775325119495,0.00367788737639785,-0.00028277316596359,0,
00:00:02.492,-0.00291397678665817,-0.00741431582719088,0.00403278553858399,-0.000639247766230255,0,
00:00:02.496,-0.0043033454567194,0.00932120438665152,-0.00564514333382249,-0.000522508984431624,0,
00:00:02.5,0.00638895574957132,-0.00391209917142987,0.00399864185601473,-0.000191386352526024,0,
00:00:02.504,0.00761441746726632,-0.00751182483509183,0.00672858953475952,0.000107377432868816,0,
00:00:02.508,-0.00953204836696386,0.0146181304007769,-0.0172118786722422,0.00024778870283626,0,
00:00:02.512,-0.00930186361074448,-0.00825246796011925,0.0122687658295035,0.000228858960326761,0,
00:00:02.516,0.00777018209919333,0.00270431558601558,-0.00485491286963224,0.000121638135169633,0,
00:00:02.52,0.00382971484214067,0.00202905875630677,0.000848433061037213,7.39406686989241E-06,0,
00:00:02.524,-0.002110306173563,-0.00713066384196281,0.0038636620156467,-6.24459935352206E-05,0,
00:00:02.528,-0.0102990176528692,0.00561694800853729,-0.00528990430757403,-7.64941141824238E-05,0,
00:00:02.532,0.0096729751676321,-0.00111474609002471,0.00410909531638026,-5.19100067322142E-05,0,
00:00:02.536,0.00964203104376793,-0.00809626001864672,0.00446504261344671,-1.52803331729956E-05,0,
00:00:02.54,0.000382002996047959,0.00948469992727041,-0.00929704494774342,-0.00206310232169926,0,
00:00:02.544,-0.0163544770330191,0.00366720464080572,-0.000522394140716642,0.00407467130571604,0,
00:00:02.548,-0.00509985163807869,-0.00369027024134994,0.00239939568564296,-0.000313471828121692,0,
00:00:02.552,0.0124768186360598,-0.00167444592807442,9.04876142158173E-05,-0.00145590724423528,0,
00:00:02.556,0.00757312681525946,0.0029113965574652,-0.0034183191601187,-0.00309662870131433,0,
00:00:02.56,-0.00930363032966852,-0.0171562358736992,0.017611026763916,0.00178386201150715,0,
00:00:02.564,-0.00388965359888971,0.00433802790939808,-0.00354216201230884,0.00410793907940388,0,
00:00:02.568,0.00514718936756253,0.0180732309818268,-0.0195444505661726,-0.00332936155609787,0,
00:00:02.572,0.00320327747613192,-0.00138194172177464,0.00562820583581924,-0.000127579725813121,0,
00:00:02.576,-0.00681253429502249,-0.00140347017440945,0.000919319631066173,0.000546832859981805,0,
00:00:02.58,0.00129128666594625,-0.00544165540486574,0.00367639283649623,0.000284922018181533,0,
00:00:02.584,0.00456620147451758,-0.00994717143476009,0.00866331625729799,-8.49268908496015E-05,0,
00:00:02.588,-0.000852878496516496,0.0136398309841752,-0.0139564080163836,-0.000254065438639373,0,
00:00:02.592,-0.00202222354710102,-0.00555557850748301,0.00595423160120845,-0.000213082181289792,0,
00:00:02.596,-0.00332031166180968,2.32095408136956E-05,0.000604367058258504,-7.25113204680383E-05,0,
00:00:02.6,0.00188192550558597,0.00565568869933486,-0.00725882081314921,5.63121466257144E-05,0,
00:00:02.604,0.00642448896542192,-0.00497957179322839,0.00919659249484539,0.000115631337394007,0,
00:00:02.608,-0.00301676942035556,-0.00741229578852654,0.00698691047728062,0.000104466795164626,0,
00:00:02.612,-0.0077992333099246,0.0150164170190692,-0.0166884958744049,5.46303417650051E-05,0,
00:00:02.616,0.00266241654753685,-0.00797248724848032,0.00676576420664787,2.55843633567565E-06,0,
00:00:02.62,0.00830865558236837,0.00691427057608962,-0.00719464290887117,-0.00210464419797063,0,
00:00:02.624,-0.00189249438699335,-0.00409488659352064,0.00449081137776375,0.00401625409722328,0,
00:00:02.628,-0.00569025008007884,-0.0106558967381716,0.0112592857331038,-0.000356693373760208,0,
00:00:02.632,5.59055843041278E-05,0.00670470297336578,-0.00625840574502945,-0.00147170329000801,0,
00:00:02.636,0.00594410533085465,0.0064117000438273,-0.00626211287453771,-0.00101383798755705,0,
00:00:02.64,-0.00250906520523131,-0.00493753468617797,0.00484194466844201,-0.00224991282448173,0,
00:00:02.644,-0.00699116615578532,0.00755978468805552,-0.00776135269552469,0.00238135200925171,0,
00:00:02.648,0.00324715464375913,-0.0107266223058105,0.0105480626225471,0.00219499482773244,0,
00:00:02.652,0.00640286924317479,0.00298789353109896,-0.00307690096087754,0.000559137086383998,0,
00:00:02.656,0.00407104939222336,0.0033808636944741,-0.00337944459170103,-0.000737841066438705,0,
00:00:02.66,-0.00621963059529662,-0.00381457270123065,0.00386824226006866,-0.00113732705358416,0,
00:00:02.664,-0.0115044275298715,0.0021644385997206,-0.0021032455842942,0.00125348288565874,0,
00:00:02.668,0.00476229190826416,-0.000819333654362708,0.000858663988765329,-0.00429172301664948,0,
00:00:02.672,0.0089349402114749,-0.00494306068867445,0.0049527264200151,0.000562157656531781,0,
00:00:02.676,-0.000727134291082621,0.0122615657746792,-0.0122733917087317,0.00188337499275804,0,
00:00:02.68,-0.00232568453066051,-0.0144484452903271,0.0123533550649881,0.00137522642035037,0,
00:00:02.684,-0.001212302246131,0.0125616807490587,-0.00852596946060658,0.000353225594153628,0,
00:00:02.688,0.00835776142776012,-0.0038378881290555,0.00349812139756978,-0.000409724190831184,0,
00:00:02.692,0.00517415860667825,-0.00447727041319013,0.00301377288997173,-0.000661814759951085,0,
00:00:02.696,-0.0241188127547503,0.00547713320702314,-0.00649137189611793,-0.000505746924318373,0,
00:00:02.7,-0.00034096249146387,-0.00387356290593743,0.00369417830370367,-0.000184146032552235,0,
00:00:02.704,0.0342164933681488,-0.00648965360596776,0.00688985455781221,9.03959880815819E-05,0,
00:00:02.708,-0.00488204695284367,0.0173980183899403,-0.0147729469463229,0.000215755848330446,0,
00:00:02.712,-0.0493528135120869,-0.0122075583785772,0.00853773485869169,0.000197977045900188,0,
00:00:02.716,-0.048678882420063,0.00480794487521052,-0.00436857715249062,0.000103137092082761,0,
00:00:02.72,0.0575862489640713,-0.000943194201681763,0.00230036349967122,3.54680310010735E-06,0,
00:00:02.724,0.082459956407547,-0.00394788477569819,0.00477737421169877,-0.00213197688572109,0,
00:00:02.728,-0.00195294385775924,0.00317132263444364,-0.00314479158259928,0.00398408528417349,0,
00:00:02.732,-0.0255264732986689,-5.85067900829017E-05,-0.00041084160329774,-0.000377860211301595,0,
00:00:02.736,-0.0208153463900089,-0.00684974528849125,0.00630978215485811,-0.00147733022458851,0,
00:00:02.74,-0.0329195633530617,0.0139873642474413,-0.0143174510449171,-0.00100795004982501,0,
00:00:02.744,-0.0342801734805107,-0.00486313039436936,0.0068865274079144,-0.000164034281624481,0,
00:00:02.748,0.0231531877070665,-0.00371111091226339,-0.000200027774553746,0.000414255569921806,0,
00:00:02.752,0.0481071881949902,0.000746596546377987,-0.000217308130231686,0.000556550512555987,0,
00:00:02.756,0.0168057642877102,-0.00558569841086864,0.00719690276309848,-0.00169433420524001,0,
00:00:02.76,-0.00663890969008207,0.00775345088914037,-0.00460301758721471,0.00207735784351826,0,
00:00:02.764,-0.0286415852606297,0.000257499108556658,-0.00414562225341797,0.00360520812682807,0,
00:00:02.768,-0.0250966586172581,-0.0119941830635071,0.0118730003014207,-0.00406749965623021,0,
00:00:02.772,0.0126182688400149,0.0232746582478285,-0.0224120561033487,-0.000668668013531715,0,
00:00:02.776,0.0131697217002511,-0.016160074621439,0.0167689211666584,0.000365957996109501,0,
00:00:02.78,0.0107051376253366,0.00387075380422175,-0.00379515043459833,0.000399638753151521,0,
00:00:02.784,0.00462299073114991,0.00143659510649741,0.000363577099051327,0.0022328004706651,0,
00:00:02.788,0.00462341634556651,-0.00744081847369671,0.00304871471598744,-0.00409112079069018,0,
00:00:02.792,-0.017311405390501,0.00595098733901978,-0.00375383999198675,0.00022661205730401,0,
00:00:02.796,-0.0168590266257524,-0.00255220802500844,-6.55216572340578E-05,0.00139044690877199,0,
00:00:02.8,-0.00171704078093171,-0.00351752014830709,0.00496555585414171,0.0010115202749148,0,
00:00:02.804,0.0175311472266912,0.0135103529319167,-0.00965275522321463,0.000227119715418667,0,
00:00:02.808,0.00532795721665025,-0.0101431217044592,0.00681315502151847,-0.000339671736583114,0,
00:00:02.812,-0.00181631010491401,-0.000333528063492849,0.000339958991389722,-0.000505728821735829,0,
00:00:02.816,0.0066370377317071,0.004123130813241,-0.00345233269035816,-0.000365820043953136,0,
00:00:02.82,0.000118802337965462,-0.000655349344015121,0.000979874283075333,-0.000113579852040857,0,
00:00:02.824,-0.0120276110246778,0.00459302961826324,-0.00472021661698818,-0.00198564864695072,0,
00:00:02.828,-0.00904494989663363,-0.0130997663363814,0.0127655435353518,0.00214949948713183,0,
00:00:02.832,0.00699519738554955,-0.00313610141165555,0.00285132369026542,0.00179212552029639,0,
00:00:02.836,0.00703079998493195,0.0172314960509539,-0.0152657376602292,0.00232492899522185,0,
00:00:02.84,0.00640377402305603,-0.00922147650271654,0.00522474572062492,-0.00489813229069114,0,
00:00:02.844,-0.00769786071032286,0.00884284265339375,-0.00837436411529779,0.00133431190624833,0,
00:00:02.848,-0.0146794728934765,-0.00705286208540201,0.00864608213305473,-0.00119282223749906,0,
00:00:02.852,0.0110267801210284,0.00337340100668371,-0.000207189485081472,-0.00281219137832522,0,
00:00:02.856,0.0074690175242722,-0.00102771550882608,-0.000755493354517967,0.00227701291441917,0,
00:00:02.86,-0.000951155903749168,-0.00462222332134843,0.00047449316480197,0.00458310125395656,0,
00:00:02.864,-0.00721965543925762,-0.0123102180659771,0.0135174514725804,-0.00100062787532806,0,
00:00:02.868,0.0100371837615967,0.0214884374290705,-0.0194158405065537,-0.00211149407550693,0,
00:00:02.872,-0.00108305213507265,-0.00321664707735181,0.00637970538809896,-0.00334762898273766,0,
00:00:02.876,-0.0179254394024611,0.00293242605403066,-0.0070828702300787,0.00187255616765469,0,
00:00:02.88,0.0010656911181286,-0.0111500257626176,0.0128157734870911,0.00225365580990911,0,
00:00:02.884,0.00604351051151752,0.00792859680950642,-0.0112765142694116,0.000902034342288971,0,
00:00:02.888,0.0172915570437908,-0.00824806559830904,0.00918872933834791,-0.000397047522710636,0,
00:00:02.892,-0.00572911743074656,0.00505871511995792,-0.00134317704942077,-0.000957893091253936,0,
00:00:02.896,-0.00993356667459011,0.0062401732429862,-0.00735223479568958,-0.000821842171717435,0,
00:00:02.9,0.00501351244747639,-0.00818395055830479,0.00439121201634407,0.00172711000777781,0,
00:00:02.904,0.00727504026144743,-0.000379193545086309,0.00159322516992688,-0.00394886964932084,0,
00:00:02.908,-0.00342544610612094,0.00398231204599142,-0.00209681037813425,0.000667961896397173,0,
00:00:02.912,-0.0131091205403209,-0.000445199751993641,0.00132609251886606,0.00179768295492977,0,
00:00:02.916,-0.00513271987438202,0.000837581639643759,0.00101926212664694,0.00121072109322995,0,
00:00:02.92,0.00791638530790806,-0.00882894638925791,0.0040223877876997,0.00021171840489842,0,
00:00:02.924,0.00756009854376316,0.0085603678599,-0.00685458583757281,-0.00255336449481547,0,
00:00:02.928,-0.00553560396656394,-0.00285401497967541,-6.85858612996526E-05,0.00131769734434783,0,
00:00:02.932,0.00651615113019943,0.00665733125060797,-0.00318477209657431,0.00325658358633518,0,
00:00:02.936,0.00765813793987036,-0.00230701430700719,0.00224013556726277,-0.00193344044964761,0,
00:00:02.94,-0.0140959406271577,-0.00166536611504853,0.000924403080716729,-0.00236379122361541,0,
00:00:02.944,-0.0018630150007084,-0.0122595401480794,0.00981529150158167,-0.00305798905901611,0,
00:00:02.948,0.00652169529348612,0.0147129436954856,-0.0105615137144923,0.00445111701264977,0,
00:00:02.952,0.000601065170485526,-0.00432795193046331,0.00223209103569388,0.000700198579579592,0,
00:00:02.956,-0.00623032124713063,0.000330655166180804,0.000445701240096241,-0.000542028050404042,0,
00:00:02.96,-0.000217913533560932,0.007244355045259,-0.00445117754861712,-0.00266605289652944,0,
00:00:02.964,0.00233694002963603,-0.00977548956871033,0.00565324863418937,0.00380202708765864,0,
00:00:02.968,0.00438588485121727,-0.00762862898409367,0.00945411436259747,-0.00234841532073915,0,
00:00:02.972,0.00117823109030724,0.0121542047709227,-0.0132698025554419,0.000702806399203837,0,
00:00:02.976,-0.00380716728977859,0.00751065695658326,-0.0105238696560264,0.000787709082942456,0,
00:00:02.98,-0.00892045069485903,-0.00337923015467823,0.0053843860514462,5.67527313251048E-05,0,
00:00:02.984,0.00361419934779406,-0.0185436606407166,0.0208600945770741,-0.000475394510431215,0,
00:00:02.988,0.0186230558902025,0.00987928081303835,-0.0089623536914587,-0.000554533035028726,0,
00:00:02.992,-0.0102758510038257,0.00716568622738123,-0.00758813414722681,-0.000319648388540372,0,
00:00:02.996,-0.0139820985496044,0.00110033433884382,-3.02483222185401E-05,-1.28760839288589E-05,0,
00:00:03,0.0126836802810431,-0.0111508527770638,0.00830594077706337,0.000191059982171282,0,
00:00:03.004,0.00802820455282927,0.00849879812449217,-0.0125968921929598,0.00023799690825399,0,
00:00:03.008,-0.00819959118962288,-0.00572763942182064,0.0096930880099535,0.000167636899277568,0,
00:00:03.012,-0.0115137230604887,0.00318461982533336,-0.00233556539751589,5.62358109164052E-05,0,
00:00:03.016,0.000280190171906725,0.000281236454611644,-0.0024500978179276,-3.24987049680203E-05,0,
00:00:03.02,0.0122311236336827,0.00364049384370446,0.000222751070396043,-7.03182813595049E-05,0,
00:00:03.024,0.00623015221208334,-0.0167999546974897,0.0143196852877736,-0.0021380374673754,0,
00:00:03.028,-0.0121814887970686,0.0188803654164076,-0.0162787735462189,0.00402025273069739,0,
00:00:03.032,9.12577961571515E-05,-0.00645184237509966,0.00512694846838713,-0.000332547962898389,0,
00:00:03.036,0.0092805027961731,0.0068868906237185,-0.00853862799704075,-0.0035219204146415,0,
00:00:03.04,-0.00604007672518492,-0.0068437522277236,0.00618692580610514,0.000976902898401022,0,
00:00:03.044,-0.00288033112883568,-0.00517632532864809,0.00549380201846361,0.00147077743895352,0,
00:00:03.048,-0.00205656816251576,0.00408816896378994,-0.00334604014642537,0.000577365804929286,0,
00:00:03.052,0.00344734755344689,0.00126727041788399,-0.00270402710884809,-0.000298046681564301,0,
00:00:03.056,0.00731518305838108,0.00229626521468163,0.00203186529688537,0.00142403447534889,0,
00:00:03.06,-0.00504942797124386,-0.00205313297919929,0.00164923816919327,-0.00457911565899849,0,
00:00:03.064,-0.00424183066934347,0.000321494007948786,-0.00203909981064498,0.000142843986395746,0,
00:00:03.068,0.0100323231890798,0.00606979290023446,-0.00734432460740209,0.0015766997821629,0,
00:00:03.072,-0.00768813863396645,-0.0191285368055105,0.0187953002750874,0.00127199455164373,0,
00:00:03.076,-0.00781888235360384,-0.00417299196124077,0.00454706652089953,0.000416352180764079,0,
00:00:03.08,0.00240044435486197,0.0189349669963121,-0.0183260329067707,-0.000275024358415976,0,
00:00:03.084,0.00990541279315948,0.0182511620223522,-0.0177856963127851,-0.000542551570106298,0,
00:00:03.088,0.00661210808902979,-0.0169168394058943,0.0170853435993195,-0.000446550518972799,0,
00:00:03.092,-0.00594319961965084,-0.00100762257352471,0.000922692765016109,-0.00226124376058578,0,
00:00:03.096,-0.014842027798295,-0.000635343370959163,0.000435039197327569,0.00410535139963031,0,
00:00:03.1,0.00724657019600272,-0.0150853488594294,0.0128262415528297,-0.000158527691382915,0,
00:00:03.104,0.0117494305595756,0.0111484490334988,-0.00719259819015861,-0.0012932704994455,0,
00:00:03.108,-0.00633688736706972,0.00251303613185883,-0.00284932064823806,-0.000922981358598918,0,
00:00:03.112,-0.0103897275403142,-0.00219572358764708,0.000782930117566139,-0.000173337262822315,0,
00:00:03.116,0.0069310343824327,-0.00049252063035965,-0.000465157558210194,0.000353839102899656,0,
00:00:03.12,0.00814572162926197,0.00976078025996685,-0.00990445259958506,0.000492173596285284,0,
00:00:03.124,-0.00129893841221929,-0.00605724891647697,0.00646564597263932,-0.0017333971336484,0,
00:00:03.128,-0.0108721675351262,-0.00972333922982216,0.0123370019719005,0.0020698627922684,0,
00:00:03.132,0.00218896730802953,0.0155472373589873,-0.0192350298166275,0.00154360535088927,0,
00:00:03.136,0.00166129774879664,-0.0102398302406073,0.0127408923581243,4.3607224142761E-06,0,
00:00:03.14,-0.000661269354168326,-0.000374144728993997,-0.00232555158436298,-0.000986259430646896,0,
00:00:03.144,0.00495743518695235,0.00662897480651736,-0.00546462647616863,0.000982717261649668,0,
00:00:03.148,-7.03564219293185E-05,0.00213274941779673,-0.000636018288787454,-0.00259771943092346,0,
00:00:03.152,0.00659542437642813,-0.0150879165157676,0.0156434196978807,-0.00375181343406439,0,
00:00:03.156,-0.0135311121121049,0.00361444195732474,-0.00396667839959264,0.00214959518052638,0,
00:00:03.16,-0.0135871302336454,0.00277587585151196,-0.00350273353978992,0.000848172232508659,0,
00:00:03.164,0.0147140678018332,0.00977641064673662,-0.0103790005668998,0.00556369870901108,0,
00:00:03.168,0.0146481143310666,0.00727357435971498,-0.00544217368587852,-0.00044420815538615,0,
00:00:03.172,0.00443453434854746,-0.00556245585903525,0.00367405009455979,-0.00247335084713995,0,
00:00:03.176,-0.0128960907459259,-0.0258096680045128,0.0223442018032074,-0.0020824708044529,0,
00:00:03.18,-0.0126053588464856,0.0053716073743999,-0.00332834245637059,-0.00079053855733946,0,
00:00:03.184,-0.00675537483766675,0.0220922771841288,-0.0173944998532534,-0.00173640542197973,0,
00:00:03.188,0.0153105733916163,-0.0090110506862402,0.00825628452003002,0.00282278261147439,0,
00:00:03.192,0.00450258469209075,0.000348663510521874,-0.00434039533138275,0.00240859272889793,0,
00:00:03.196,-0.0059952768497169,-0.00139908841811121,0.00217079347930849,0.000556034443434328,0,
00:00:03.2,0.0109776863828301,-0.0072404439561069,0.00873660948127508,0.00121595559176058,0,
00:00:03.204,0.00389885040931404,0.0141142820939422,-0.0113432016223669,-0.005323585588485,0,
00:00:03.208,-0.00921288970857859,-0.0066365827806294,0.00238356017507613,-0.000571757787838578,0,
00:00:03.212,-0.0125220809131861,-0.00355520821176469,0.00326332286931574,0.00328457192517817,0,
00:00:03.216,0.00330196716822684,0.00863457936793566,-0.00565547170117497,-0.000695908383931965,0,
00:00:03.22,0.00757432682439685,-0.00357414456084371,0.00236993189901114,-0.00306976586580276,0,
00:00:03.224,-0.00330248032696545,-0.0126774543896317,0.00920709036290646,0.00179045100230724,0,
00:00:03.228,-0.00195210450328887,0.0168994888663292,-0.0131935132667422,0.00211704103276134,0,
00:00:03.232,0.00549965212121606,-0.00824097916483879,0.00843475107103586,0.000804418872576207,0,
00:00:03.236,0.00297631276771426,0.000667120388243347,-0.00134947069454938,-0.000446218677097932,0,
00:00:03.24,0.00110229174606502,0.00445171678438783,-0.00700120301917195,-0.000974909635260701,0,
00:00:03.244,-0.0131940599530935,-0.000783226802013814,0.00270856427960098,-0.000824524729978293,0,
00:00:03.248,0.00368445692583919,0.00633415346965194,-0.00448144832625985,-0.000348443572875112,0,
00:00:03.252,0.00325748883187771,-0.0153997419402003,0.0178953465074301,0.000100797864433844,0,
00:00:03.256,0.00187261227983981,-0.0111974617466331,0.00643622037023306,0.000331467890646309,0,
00:00:03.26,-0.00377081707119942,0.0270916726440191,-0.0277901645749807,0.000329266913468018,0,
00:00:03.264,0.00126944424118847,-0.00734220817685127,0.0080861821770668,0.000188727455679327,0,
00:00:03.268,0.01265739928931,0.00928512774407864,-0.0063771503046155,-0.00204955018125474,0,
00:00:03.272,-0.00244129518978298,-0.0112104769796133,0.00757423741742969,0.00189543981105089,0,
00:00:03.276,-0.014368467964232,-0.0037098303437233,0.0061100572347641,0.00361019186675549,0,
00:00:03.28,-0.0110479006543756,0.0046737426891923,-0.00748884445056319,-0.00187595700845122,0,
00:00:03.284,0.00648361165076494,-0.00396671518683434,0.00715774670243263,-0.00251160678453743,0,
00:00:03.288,0.0185563117265701,-0.00570526905357838,0.00525297271087766,-0.00119026622269303,0,
00:00:03.292,0.0130896242335439,0.0184466522186995,-0.019465921446681,0.000244489754550159,0,
00:00:03.296,-0.017442436888814,-0.0135470842942595,0.0110081760212779,-0.0011009075678885,0,
00:00:03.3,-0.0171109307557344,0.00906182639300823,-0.00693198991939425,0.00292136683128774,0,
00:00:03.304,-0.0179599560797215,-0.00149991852231324,0.00357349193654954,0.00213244324550033,0,
00:00:03.308,0.0291729904711246,-0.00788185838609934,0.0084301084280014,0.000169745384482667,0,
00:00:03.312,0.0153197990730405,0.00587049406021833,-0.004489965736866,-0.00114903517533094,0,
00:00:03.316,0.00321522983722389,-0.000734437780920416,-0.00233280449174345,-0.00138249131850898,0,
00:00:03.32,-0.00681752944365144,-0.00790728349238634,0.00338920438662171,-0.000863597844727337,0,
00:00:03.324,-0.00758989434689283,0.0136202163994312,-0.00999049656093121,-0.000144140052725561,0,
00:00:03.328,-0.0149469515308738,-0.00662751914933324,0.00734755070880055,0.000364895618986338,0,
00:00:03.332,-0.0016381936147809,0.000915597833227366,-0.000953965063672513,0.000519259367138147,0,
00:00:03.336,0.00252627418376505,-0.00120492349378765,-0.000916388933546841,0.000392526999348775,0,
00:00:03.34,0.0099510382860899,0.00339680910110474,0.00071710639167577,0.00015217530017253,0,
00:00:03.344,0.00811411999166012,-0.0162188056856394,0.0138974385336041,-5.29959106643219E-05,0,
00:00:03.348,0.00878873839974403,0.0196555573493242,-0.0191118735820055,-0.000150078441947699,0,
00:00:03.352,-0.00194291234947741,-0.00385348265990615,0.00651351269334555,-0.000142433025757782,0,
00:00:03.356,-0.00267369276843965,0.00296530104242265,-0.00502747343853116,-0.00215263152495027,0,
00:00:03.36,-0.016847962513566,-0.00667764293029904,0.00451271375641227,0.00404556281864643,0,
00:00:03.364,-0.0177339762449265,-0.00190969707909971,0.00120708777103573,-0.00029476621421054,0,
00:00:03.368,0.0115500101819634,0.00291145336814225,-0.00440292013809085,-0.00141728692688048,0,
00:00:03.372,0.0165055822581053,-0.0023616086691618,0.00748129282146692,-0.000987177016213536,0,
00:00:03.376,0.000880085455719382,-0.00251156790181994,0.00302631547674537,-0.00225092913024127,0,
00:00:03.38,-0.00476988963782787,0.0100375227630138,-0.0111838206648827,0.0023645895998925,0,
00:00:03.384,0.00207794830203056,0.00427336199209094,-0.00751880556344986,0.00425200536847115,0,
00:00:03.388,0.00532938120886683,-0.0155391655862331,0.0190341677516699,-0.00350384577177465,0,
00:00:03.392,-0.00506162084639072,0.00584755698218942,-0.00613037357106805,-0.000407309620641172,0,
00:00:03.396,-0.00547512527555227,0.00733156315982342,-0.00843322742730379,0.000331450690282509,0,
00:00:03.4,-0.00422384263947606,-0.0167763158679008,0.0161267705261707,0.000203442657948472,0,
00:00:03.404,0.00714861787855625,0.00442104134708643,-0.00440404610708356,-5.10367062815931E-05,0,
00:00:03.408,0.00635048747062683,0.0158599968999624,-0.0154536077752709,-0.000166266021551564,0,
00:00:03.412,-0.0110449716448784,-0.0105047589167953,0.0109427412971854,-0.000131043794681318,0,
00:00:03.416,-0.0177922397851944,0.000606864225119352,-0.000359354307875037,-2.89257004624233E-05,0,
00:00:03.42,0.0211369581520557,0.00128124444745481,-0.00126517924945801,5.87306785746478E-05,0,
00:00:03.424,0.0292240288108587,-0.00880101975053549,0.00866724830120802,9.29386951611377E-05,0,
00:00:03.428,-0.0164437033236027,0.0126070668920875,-0.012774683535099,7.68291502026841E-05,0,
00:00:03.432,-0.0208833646029234,-0.00686228927224875,0.00674529979005456,3.59654804924503E-05,0,
00:00:03.436,-0.00278778071515262,-0.000739801966119558,0.000702091376297176,-0.00207862607203424,0,
00:00:03.44,0.0118861952796578,0.00554041936993599,-0.00551573047414422,0.0040269079618156,0,
00:00:03.444,0.000776994915213436,-0.00884837377816439,0.00889893528074026,-0.000359573808964342,0,
00:00:03.448,-0.00104954722337425,0.00520803034305573,-0.00516403233632445,-0.00148126727435738,0,
00:00:03.452,0.0040106070227921,0.00233645597472787,-0.00231517129577696,-0.00102321361191571,0,
00:00:03.456,-0.00118778238538653,-0.00415585981681943,0.00415473477914929,-0.00225515989586711,0,
00:00:03.46,-0.00244012917391956,0.00903027784079313,-0.00904401671141386,0.00238076806999743,0,
00:00:03.464,-0.00368600361980498,-0.00591836031526327,0.00590315088629723,0.00427316594868898,0,
00:00:03.468,0.00586521625518799,-0.00532921496778727,0.00531968055292964,-0.00141308247111738,0,
00:00:03.472,0.000444021541625261,0.00759691186249256,-0.00759903201833367,-0.0023776984307915,0,
00:00:03.476,-0.00622835895046592,-0.00327670597471297,0.00327983358874917,-0.00131365528795868,0,
00:00:03.48,-0.00434981705620885,-0.0116396509110928,0.0116445040330291,-0.0020557998213917,0,
00:00:03.484,0.00628780387341976,0.0158234108239412,-0.0158196333795786,0.00276139052584767,0,
00:00:03.488,0.00973221193999052,-0.00160835299175233,0.00368565879762173,0.00250066234730184,0,
00:00:03.492,-0.0025318106636405,-0.00374968559481204,-0.000301863357890397,0.000676677387673408,0,
00:00:03.496,-0.00931506045162678,0.0091949924826622,-0.00886312127113342,-0.000788249890320003,0,
00:00:03.5,0.000672138587106019,-0.00873768236488104,0.0102013219147921,-0.00126794539391994,0,
00:00:03.504,0.00696749705821276,-0.0126461889594793,0.0136652085930109,-0.000945295265410095,0,
00:00:03.508,-0.000148174876812845,0.0165588613599539,-0.0163740366697311,-0.000306917994748801,0,
00:00:03.512,-0.00930785574018955,-0.0048071350902319,0.0064862035214901,0.000224048097152263,0,
00:00:03.516,-0.00305121880955994,0.0111085316166282,-0.0157080758363009,0.000451543281087652,0,
00:00:03.52,0.014011112973094,-0.0139676695689559,0.0159943904727697,0.000396622635889798,0,
00:00:03.524,7.15180503902957E-05,0.00310922111384571,-0.00372734805569053,0.000196513283299282,0,
00:00:03.528,-0.00813868269324303,0.00197931565344334,-0.00457089813426137,-4.15436488765408E-06,0,
00:00:03.532,-0.00128675473388284,0.000466717581730336,0.00170617364346981,-0.000119571239338256,0,
00:00:03.536,0.00848911330103874,0.00365837849676609,-0.00141216593328863,-0.000135745372972451,0,
00:00:03.54,0.000926854729186744,-0.00675697810947895,0.00956130586564541,-8.69631039677188E-05,0,
00:00:03.544,-0.00952010415494442,-0.00801968947052956,0.00336531712673604,-2.11311707971618E-05,0,
00:00:03.548,0.00428568106144667,0.0154246585443616,-0.0161975454539061,2.64150257862639E-05,0,
00:00:03.552,-0.00314080412499607,-0.00922104436904192,0.00980554148554802,-0.0020329209510237,0,
00:00:03.556,0.000935706193558872,0.0137425400316715,-0.0130570326000452,0.00200938154011965,0,
00:00:03.56,0.00192938698455691,-0.0143940523266792,0.0147298788651824,0.00165632285643369,0,
00:00:03.564,0.00128272396977991,0.00653495499864221,-0.00447471998631954,0.000173616106621921,0,
00:00:03.568,0.00229550525546074,-0.00625796150416136,0.00201589800417423,-0.000855040445458144,0,
00:00:03.572,-0.000425545702455565,-0.000562835775781423,0.000706078193616122,-0.00103984773159027,0,
00:00:03.576,-0.00434992322698236,0.0111542046070099,-0.00978314690291882,-0.000637479242868721,0,
00:00:03.58,-0.00857519265264273,-0.00470574712380767,0.00781149975955486,-8.25123497634195E-05,0,
00:00:03.584,0.00849302764981985,-0.00904141739010811,0.00732136750593781,0.000304056098684669,0,
00:00:03.588,0.00908542517572641,0.0155544355511665,-0.0175166595727205,0.000412935682106763,0,
00:00:03.592,-0.0093959104269743,-0.0106070563197136,0.00992935243993998,0.000305231980746612,0,
00:00:03.596,0.000855448830407113,0.00129174871835858,-0.0028965410310775,0.000113467576738913,0,
00:00:03.6,0.00429018447175622,-0.00182110862806439,0.00470056012272835,-4.66863821202423E-05,0,
00:00:03.604,0.00281588733196259,0.00430072052404284,-0.0019459982868284,-0.000120165066618938,0,
00:00:03.608,-0.00853007379919291,-0.00203511258587241,0.0045403279364109,-0.000111570807348471,0,
00:00:03.612,-0.00696037663146853,0.00499729299917817,-0.00796553771942854,-5.8693560276879E-05,0,
00:00:03.616,0.00724285654723644,-0.0114713879302144,0.00639200070872903,-2.61234799836529E-06,0,
00:00:03.62,0.00608022464439273,0.012882387265563,-0.00994265917688608,3.12757983920164E-05,0,
00:00:03.624,-0.00313213933259249,-0.000200374604901299,0.000470201252028346,3.76441057596821E-05,0,
00:00:03.628,-0.00480334181338549,-0.015088745392859,0.01287099160254,2.51914843829582E-05,0,
00:00:03.632,0.00803637504577637,0.00596095202490687,-0.00180439313407987,7.08516972736106E-06,0,
00:00:03.636,-0.000776541593950242,0.00493499869480729,-0.00496675819158554,-0.00208232831209898,0,
00:00:03.64,0.001019969698973,0.00603239703923464,-0.00929639395326376,0.00196361355483532,0,
00:00:03.644,-0.0123935667797923,-0.00668773427605629,0.00983190536499023,0.0016323453746736,0,
00:00:03.648,0.00220538047142327,-0.0113542061299086,0.00870364718139172,0.000172682732227258,0,
00:00:03.652,0.0116378664970398,0.0180389788001776,-0.0172785017639399,-0.000842095701955259,0,
00:00:03.656,-0.0087364437058568,-0.00836175121366978,0.0114638619124889,-0.00102434691507369,0,
00:00:03.66,0.00139146624132991,0.00184217584319413,-0.00352795328944921,-0.000627141795121133,0,
00:00:03.664,0.000771317689213902,-0.000504652445670217,-0.00149051437620074,0.00199614511802793,0,
00:00:03.668,0.00517941452562809,0.00118588469922543,-0.001916638109833,-0.00374976801685989,0,
00:00:03.672,0.00312492530792952,0.00174953555688262,-0.0012992451665923,0.000741388241294771,0,
00:00:03.676,-0.00894534960389137,-0.00961674470454454,0.0105458945035934,0.00176625163294375,0,
00:00:03.68,-0.00559758022427559,-0.00532058672979474,0.00400968780741096,0.00113146030344069,0,
00:00:03.684,0.00262084067799151,0.0142534105107188,-0.00989827141165733,0.000138484654598869,0,
00:00:03.688,0.0103431483730674,0.00633172923699021,-0.00885904114693403,-0.000515876803547144,0,
00:00:03.692,-0.00552403414621949,-0.00372386584058404,0.00390810985118151,-0.000659059907775372,0,
00:00:03.696,-0.00681972410529852,-0.00536079937592149,0.00567010557278991,-0.00044051610166207,0,
00:00:03.7,0.00602815812453628,-0.00104517245199531,0.00294001842848957,-0.000110382279672194,0,
00:00:03.704,0.00469384202733636,0.00190926960203797,-0.00434793438762426,0.000137485913001001,0,
00:00:03.708,-0.00194479047786444,5.59991894988343E-05,-0.00209615635685623,-0.0018487460911274,0,
00:00:03.712,-0.00701405201107264,-0.0242714285850525,0.0239499732851982,0.00215879804454744,0,
00:00:03.716,0.000396315997932106,0.0203116443008184,-0.0193702057003975,0.00172183534596115,0,
00:00:03.72,0.0115904230624437,0.0238280482590199,-0.0225827302783728,0.000162098192959093,0,
00:00:03.724,-0.00297794840298593,-0.0117503143846989,0.0125844171270728,-0.000906636472791433,0,
00:00:03.728,-0.00960714183747768,-0.0156542435288429,0.0158481560647488,0.000983041129074991,0,
00:00:03.732,0.0010494845919311,0.00969641469419003,-0.0120608070865273,-0.00264375354163349,0,
00:00:03.736,0.00768463592976332,-0.00930491928011179,0.0108205564320087,-0.00380517728626728,0,
00:00:03.74,-0.00161975040100515,0.00427441159263253,-0.000924755353480577,0.0021148391533643,0,
00:00:03.744,-0.00293042766861618,0.00648065842688084,-0.00843780674040318,0.00291498098522425,0,
00:00:03.748,-0.00752377044409513,-0.00938231498003006,0.00692853284999728,0.00359832029789686,0,
00:00:03.752,0.00846409052610397,0.00455177668482065,-0.00562789989635348,-0.00206952565349638,0,
00:00:03.756,0.00835757981985807,0.0041267815977335,-0.0037842015735805,-0.00263688690029085,0,
00:00:03.76,-0.00604621414095163,-0.00812459643930197,0.00914610549807549,-0.00123392010573298,0,
00:00:03.764,-0.00355828856118023,0.00961485225707293,-0.00867224391549826,-0.00183986430056393,0,
00:00:03.768,0.00304445880465209,-0.00422724010422826,0.00468642683699727,0.00294049829244614,0,
00:00:03.772,-0.00134459289256483,-0.00213128351606429,0.00208995537832379,0.00256635691039264,0,
00:00:03.776,-0.00827369652688503,0.00370973884128034,-0.00403709756210446,0.000639824545942247,0,
00:00:03.78,-0.00124178221449256,-0.00965551473200321,0.00929623562842608,-0.000873027660418302,0,
00:00:03.784,0.0112417563796043,0.0075664515607059,-0.00779227633029222,-0.00134591187816113,0,
00:00:03.788,0.00863914005458355,0.00117750919889659,-0.00122906791511923,-0.00306212459690869,0,
00:00:03.792,-0.00496644806116819,-0.00503668189048767,0.00510898232460022,0.0016664358554408,0,
00:00:03.796,-0.00882205460220575,0.00716058630496264,-0.00704691093415022,0.00396360224112868,0,
00:00:03.8,-0.00156885292381048,-0.00104018661659211,0.0011292725102976,-0.00132045277860016,0,
00:00:03.804,0.00178380846045911,-0.00488447630777955,0.00492095341905952,-0.00207046652212739,0,
00:00:03.808,0.00444625178351998,0.00440376717597246,-0.0044137011282146,-0.00307885860092938,0,
00:00:03.812,-0.00669823214411736,-0.00657356064766645,0.00654076458886266,0.00217887200415134,0,
00:00:03.816,0.00667778216302395,0.00587581750005484,-0.00383211020380259,0.00246031093411148,0,
00:00:03.82,0.00850167777389288,-0.00290473876520991,-0.00116423435974866,0.000966071500442922,0,
00:00:03.824,-0.00901382137089968,-0.00381333823315799,0.00414473004639149,-0.000442206597654149,0,
00:00:03.828,-0.00725734326988459,0.0113048898056149,-0.00983161479234695,-0.00104698014911264,0,
00:00:03.832,-0.000794780789874494,-0.00607876339927316,0.00710919592529535,0.00117751851212233,0,
00:00:03.836,0.00771772535517812,-0.000585844565648586,0.000778219837229699,-0.00443599699065089,0,
00:00:03.84,0.00655393674969673,0.00688860053196549,-0.005207484588027,0.000438299495726824,0,
00:00:03.844,-0.00875868182629347,-0.00973734818398952,0.00513575412333012,0.0018240517238155,0,
00:00:03.848,-0.00311107304878533,-0.00738183595240116,0.00732921063899994,0.00137894635554403,0,
00:00:03.852,0.00764335645362735,0.0186591558158398,-0.0173048805445433,0.000392192858271301,0,
00:00:03.856,-0.000860087340697646,-0.00860340427607298,0.00972835626453161,-0.000366862397640944,0,
00:00:03.86,-0.00466542271897197,0.00371465762145817,-0.00333983125165105,-0.000635063857771456,0,
00:00:03.864,-0.00158239528536797,-0.00456494931131601,0.00432739034295082,-0.000499892979860306,0,
00:00:03.868,0.00574766891077161,-0.00254754233174026,0.00207245349884033,-0.000193018830032088,0,
00:00:03.872,0.00492343353107572,0.00722868507727981,-0.00761917745694518,-0.00199905387125909,0,
00:00:03.876,-0.00942774210125208,-0.00116795802023262,0.00100785424001515,0.00425625685602427,0,
00:00:03.88,-0.00291627226397395,-0.010870972648263,0.0109217735007405,-0.00221533491276205,0,
00:00:03.884,0.00825829803943634,0.0149354776367545,-0.0147795174270868,0.00269052246585488,0,
00:00:03.888,0.00180776149500161,-0.00314447470009327,0.00537230726331472,-0.00342131196521223,0,
00:00:03.892,-0.0104715833440423,-0.000785563373938203,-0.00318048940971494,0.00234884186647832,0,
00:00:03.896,0.00489977188408375,-0.00345788220874965,0.00380066875368357,-0.00102089089341462,0,
00:00:03.9,0.00266494788229465,0.000315553566906601,0.00111071695573628,-0.00114539288915694,0,
00:00:03.904,0.000457782269222662,-0.00979177374392748,0.0128369983285666,-0.00232916604727507,0,
00:00:03.908,0.00124213937669992,0.0182748567312956,-0.0201007947325706,0.00245777308009565,0,
00:00:03.912,-0.00516190845519304,-0.00817846786230803,0.00405196566134691,0.0023352054413408,0,
00:00:03.916,-0.00455099763348699,0.00415926845744252,-0.00290253455750644,0.000660905265249312,0,
00:00:03.92,0.00732384761795402,-0.00857176166027784,0.0106891579926014,-0.00071738677797839,0,
00:00:03.924,0.00672696577385068,0.0116427168250084,-0.00845682714134455,-0.00118322053458542,0,
00:00:03.928,-0.00881797354668379,-0.012078502215445,0.00792825222015381,-0.000892812968231738,0,
00:00:03.932,0.000786786375101656,0.00468231923878193,-0.00302968942560256,-0.0002979357377626,0,
00:00:03.936,0.00554526643827558,0.00678745843470097,-0.0080748600885272,0.000202747076400556,0,
00:00:03.94,-0.0103302234783769,-0.00778003921732306,0.00465963920578361,0.000421274569816887,0,
00:00:03.944,-0.0046874419786036,-0.000349917856510729,0.00232037575915456,0.000373969465726987,0,
00:00:03.948,0.00743222050368786,0.00170036382041872,0.000630746770184487,0.000188009536941536,0,
00:00:03.952,0.0108928419649601,0.00337363895960152,-0.0024239846970886,-7.29609098470974E-07,0,
00:00:03.956,-0.00198618462309241,-0.00584936933591962,0.00752967176958919,-0.00218641292303801,0,
00:00:03.96,-0.0114709204062819,0.00601475080475211,-0.00898474454879761,0.0039236880838871,0,
00:00:03.964,0.000160145835252479,-0.00147550366818905,-0.00103954842779785,-0.00249162060208619,0,
00:00:03.968,0.0143150128424168,0.00371225900016725,-0.00428008288145065,0.000489402678795159,0,
00:00:03.972,-0.00251949788071215,-0.00703541422262788,0.00795936863869429,0.00064636068418622,0,
00:00:03.976,-0.0132840713486075,-0.0148918945342302,0.0162535421550274,3.21893094223924E-05,0,
00:00:03.98,-0.00516375992447138,0.016688859090209,-0.0157144982367754,0.00166228518355638,0,
00:00:03.984,0.0121084079146385,-0.000426626473199576,0.000712350010871887,-0.00244031543843448,0,
00:00:03.988,0.00556910084560514,0.0137092703953385,-0.0139748184010386,-0.00396867049857974,0,
00:00:03.992,-0.000729770748876035,-0.0121592963114381,0.0116721829399467,0.00181309296749532,0,
00:00:03.996,-0.00782521907240152,0.00128228741232306,-0.0016957480693236,0.00266774045303464,0,
00:00:04,-0.00777045451104641,-0.0057112886570394,0.00344033655710518,0.0014171329094097,0,
00:00:04.004,0.0117215309292078,-0.00254626153036952,0.00661291088908911,-6.93242036504671E-05,0,
00:00:04.008,0.00323425163514912,0.00583189865574241,-0.00810901168733835,-0.000903461070265621,0,
00:00:04.012,-0.00340676936320961,0.00369498715735972,-0.00096550997113809,-0.000965433195233345,0,
00:00:04.016,-0.00274059362709522,-0.0106398854404688,0.0072995969094336,-0.000554458005353808,0,
00:00:04.02,0.00579938990995288,0.0157381612807512,-0.0133184678852558,-5.54034268134274E-05,0,
00:00:04.024,-0.000694913673214614,-0.0124674402177334,0.00940528884530067,0.000271279597654939,0,
00:00:04.028,-0.0117246564477682,0.00931610260158777,-0.00641191145405173,0.000351027760189027,0,
00:00:04.032,0.00291951233521104,-0.0085885301232338,0.00797994621098042,0.000249066244577989,0,
00:00:04.036,0.0117367645725608,-0.000911246286705136,-9.57306692725979E-05,8.32236910355277E-05,0,
00:00:04.04,-0.00287260045297444,0.00835219491273165,-0.00869419705122709,-4.93157604068983E-05,0,
00:00:04.044,-0.0132936723530293,-0.00784186739474535,0.00813733972609043,-0.000105642546259332,0,
00:00:04.048,0.00761669361963868,-0.00611888710409403,0.00664626713842154,-9.32482798816636E-05,0,
00:00:04.052,0.00930781103670597,0.0189431272447109,-0.0185420382767916,-4.59839611721691E-05,0,
00:00:04.056,-0.000833919155411422,-0.0111332070082426,0.00918391812592745,-0.00207439507357776,0,
00:00:04.06,-0.0111410645768046,0.00497553218156099,-0.00310608977451921,0.00407958216965199,0,
00:00:04.064,-0.000475107546662912,-0.00349428155459464,0.00700663309544325,-0.000301193678751588,0,
00:00:04.068,0.00728919496759772,-0.00261768489144742,0.000639678270090371,-0.00352037465199828,0,
00:00:04.072,0.000971453206147999,0.00850852951407433,-0.0131582971662283,0.000960362667683512,0,
00:00:04.076,-0.00826411601155996,-0.00397278275340796,0.00682066101580858,0.00145076971966773,0,
00:00:04.08,-0.000496782013215125,-0.0129420896992087,0.0128746852278709,0.00263970671221614,0,
00:00:04.084,0.00570026272907853,0.0106421951204538,-0.0111000277101994,-0.00435297377407551,0,
00:00:04.088,0.00599725963547826,0.00611884379759431,-0.00616772146895528,-0.000315024488372728,0,
00:00:04.092,-0.00166594376787543,-6.38653436908498E-05,0.000379222590709105,0.000943204038776457,0,
00:00:04.096,-0.00785686820745468,-0.00344509747810662,0.00383174559101462,0.000834502745419741,0,
00:00:04.1,0.00337090366519988,-0.0118561582639813,0.0120893893763423,0.000298926403047517,0,
00:00:04.104,0.0047519258223474,0.00403691176325083,-0.00401809997856617,-0.000145172627526335,0,
00:00:04.108,-0.00655437726527452,0.00458494061604142,-0.00471496721729636,-0.000319182698149234,0,
00:00:04.112,-0.00605117529630661,0.0118155833333731,-0.0119850002229214,-0.00026243130560033,0,
00:00:04.116,0.00502655562013388,-0.00443098694086075,0.00430744187906384,-0.000102648562460672,0,
00:00:04.12,0.00945985596626997,-0.0153276482596993,0.0152823934331536,4.24525314883795E-05,0,
00:00:04.124,-0.00205503311008215,0.0123902279883623,-0.0123708201572299,0.000112709662062116,0,
00:00:04.128,-0.00652384664863348,-0.00123125943355262,0.00128000590484589,0.000106926243461203,0,
00:00:04.132,-0.000762834562920034,-0.00353926280513406,0.00358422915451229,5.81735330342781E-05,0,
00:00:04.136,0.00552354101091623,-0.00364802568219602,0.00367149873636663,4.82552195535391E-06,0,
00:00:04.14,-0.0004176591464784,0.0026783652137965,-0.00267751631326973,-2.84369198197965E-05,0,
00:00:04.144,-0.00869073811918497,0.00129498436581343,-0.0013077127514407,-3.57004464603961E-05,0,
00:00:04.148,-0.00430741580203176,0.00571025582030416,-0.00572544708848,-2.46385570790153E-05,0,
00:00:04.152,0.0165079515427351,0.00150891079101712,-0.00151901296339929,-7.60253487896989E-06,0,
00:00:04.156,0.00179068022407591,-0.00468988390639424,0.00468709925189614,-0.00207016291096807,0,
00:00:04.16,-0.0102799627929926,-0.0101641975343227,0.0101668890565634,0.00406203372403979,0,
00:00:04.164,0.00158289214596152,0.0110797518864274,-0.0110750133171678,-0.000323937798384577,0,
00:00:04.168,0.00894851889461279,-0.00189208437222987,0.0018959844019264,-0.00353638571687043,0,
00:00:04.172,-0.00116761855315417,-0.00255665392614901,0.00255838851444423,0.00095516728470102,0,
00:00:04.176,-0.0142050292342901,0.00825544726103544,-0.00825572479516268,0.00145413167774677,0,
00:00:04.18,-0.00562330428510904,-0.00830534566193819,0.00830401107668877,0.000570848991628736,0,
00:00:04.184,0.00840037222951651,-0.00698353257030249,0.00698215281590819,-0.000295839767204598,0,
00:00:04.188,0.0145275937393308,0.0181665904819965,-0.0160916224122047,-0.000645384541712701,0,
00:00:04.192,-0.00484904693439603,-0.00940549559891224,0.00743004027754068,-0.000521955022122711,0,
00:00:04.196,-0.010694189928472,0.00102616113144904,-0.00474366173148155,-0.000187156692845747,0,
00:00:04.2,0.00558890402317047,0.00134627567604184,0.000452458247309551,0.000111940134956967,0,
00:00:04.204,0.0067555783316493,-0.00473213056102395,0.0092930207028985,0.000250586337642744,0,
00:00:04.208,-0.00418450776487589,0.00439906725659966,-0.00516959885135293,0.000229422585107386,0,
00:00:04.212,-0.00900531280785799,-0.0041887266561389,0.000258677318925038,0.000120653123303782,0,
00:00:04.216,0.00211353390477598,-0.0060317344032228,0.00688391830772161,5.92643891650368E-06,0,
00:00:04.22,0.00844838283956051,0.016030739992857,-0.0144776375964284,-6.35654796496965E-05,0,
00:00:04.224,-0.00138526898808777,-0.00350162899121642,0.00421567307785153,-7.69291364122182E-05,0,
00:00:04.228,-0.00517925061285496,-0.00765332486480474,0.0074397805146873,-5.17578810104169E-05,0,
00:00:04.232,-0.00172574061434716,0.00826113484799862,-0.00891067925840616,-1.48501694638981E-05,0,
00:00:04.236,0.0100350324064493,0.00125773774925619,-0.00184077711310238,1.308582159254E-05,0,
00:00:04.24,-0.00296946428716183,-0.0202418472617865,0.0199827644973993,2.37884069065331E-05,0,
00:00:04.244,-0.0107028381898999,0.00935901328921318,-0.00722021562978625,1.98229226953117E-05,0,
00:00:04.248,0.00615499541163445,0.0106812175363302,-0.0144967185333371,8.98638063517865E-06,0,
00:00:04.252,0.00584176881238818,0.00939620193094015,-0.00674654683098197,-0.00207699206657708,0,
00:00:04.256,-0.00112590054050088,-0.0194979719817638,0.0170542076230049,0.0019686664454639,0,
00:00:04.26,-0.00684030400589108,0.0038499494548887,-0.00247242231853306,0.00163506215903908,0,
00:00:04.264,0.00220126286149025,-0.0104548605158925,0.0141257550567389,0.00224864645861089,0,
00:00:04.268,0.00922989286482334,0.00689474074169993,-0.00832497421652079,-0.00489457510411739,0,
00:00:04.272,-0.00280633638612926,0.0161250475794077,-0.0181887652724981,-0.000692765403073281,0,
00:00:04.276,-0.0159733183681965,-0.0111890137195587,0.0102109704166651,0.000836706254631281,0,
00:00:04.28,0.00429033674299717,-0.00225559831596911,0.000374867144273594,0.00301557569764555,0,
00:00:04.284,0.00988718774169683,0.00278702843934298,-3.72239628632087E-05,-0.00148880993947387,0,
00:00:04.288,0.00437392154708505,-0.00724216643720865,0.00961790792644024,-0.00163047877140343,0,
00:00:04.292,-0.0058660339564085,0.0129530597478151,-0.0124181434512138,-0.000424246682086959,0,
00:00:04.296,-0.00459748366847634,-0.00746951531618834,0.0086646219715476,-0.00150380993727595,0,
00:00:04.3,0.00350689422339201,-0.00159945944324136,-0.00166825274936855,0.00284861051477492,0,
00:00:04.304,0.00218218402005732,0.00496332952752709,-0.00960076414048672,0.00226019020192325,0,
00:00:04.308,-0.00481378519907594,-0.00689207529649138,0.0105032036080956,0.00033823648118414,0,
00:00:04.312,-0.00222719460725784,0.00345816742628813,-0.00476461043581367,-0.00104305474087596,0,
00:00:04.316,0.00347364437766373,0.00103796506300569,0.000967239204328507,-0.0013661909615621,0,
00:00:04.32,0.00716356188058853,-0.00613769190385938,0.00778436241671443,-0.000910389120690525,0,
00:00:04.324,-0.00321156810969114,0.00781125575304031,-0.00755332922562957,-0.000209272591746412,0,
00:00:04.328,-0.00845798943191767,0.00482804235070944,-0.00559153687208891,0.00031645645503886,0,
00:00:04.332,-3.52977003785782E-05,-0.00320863723754883,0.00219402858056128,-0.00157454086001962,0,
00:00:04.336,0.00997355859726667,-0.00231738155707717,0.00370601238682866,0.00445113098248839,0,
00:00:04.34,0.00392093183472753,-0.00231556850485504,0.00017003234825097,-0.000161873234901577,0,
00:00:04.344,-0.00717562669888139,0.000530155026353896,-0.00194861425552517,-0.00150014495011419,0,
00:00:04.348,-0.00996011402457953,-0.000191508632269688,-0.00169387366622686,-0.00116045388858765,0,
00:00:04.352,0.00287140673026443,-0.0236331578344107,0.0288251582533121,-0.00240268674679101,0,
00:00:04.356,0.0077164638787508,0.0211631469428539,-0.0224131997674704,0.00229053804650903,0,
00:00:04.36,-0.000482010829728097,0.0181573033332825,-0.0170384161174297,0.00217937561683357,0,
00:00:04.364,-0.00126226327847689,-0.00364472437649965,0.00632233684882522,0.000594172917772084,0,
00:00:04.368,0.00603748857975006,-0.00255475216545165,-0.00191030872520059,-0.000688245927449316,0,
00:00:04.372,-0.0012317334767431,-0.00785791780799627,0.00935065094381571,-0.00110052770469338,0,
00:00:04.376,-0.00833967141807079,-0.0166335590183735,0.0153322266414762,-0.000808790966402739,0,
00:00:04.38,-0.00784838479012251,0.00794242043048143,-0.0109762502834201,-0.000246539508225396,0,
00:00:04.384,0.00997919868677855,0.00995602924376726,-0.0057904589921236,0.000214141153264791,0,
00:00:04.388,0.0119270468130708,0.00416451785713434,-0.00371357845142484,0.000404806429287419,0,
00:00:04.392,-0.00729407975450158,0.00275005144067109,-0.00547352712601423,0.000348401168594137,0,
00:00:04.396,-0.0114603759720922,-0.0160506255924702,0.0195274837315083,0.00016811364912428,0,
00:00:04.4,0.00628000590950251,-0.00901042018085718,0.00849808566272259,-8.77866295923013E-06,0,
00:00:04.404,0.0100875087082386,0.0189356189221144,-0.0202759262174368,-0.000108313644886948,0,
00:00:04.408,-0.00721291033551097,0.00302229053340852,-0.00382087752223015,-0.000120039585453924,0,
00:00:04.412,-0.00824906211346388,0.00166719511616975,-0.00376894348300993,-7.54040665924549E-05,0,
00:00:04.416,0.00552899390459061,-0.00275509152561426,0.00724258134141564,-1.69630766322371E-05,0,
00:00:04.42,0.0070918882265687,-0.00676704710349441,0.00692713493481278,-0.00205130991525948,0,
00:00:04.424,-0.00323660881258547,-0.00995657499879599,0.00878329016268253,0.00201349682174623,0,
00:00:04.428,-0.0101276841014624,0.0146025810390711,-0.0155886085703969,0.00167182739824057,0,
00:00:04.432,0.00456701777875423,-0.00650100316852331,0.00617651268839836,0.000189119644346647,0,
00:00:04.436,0.0100113041698933,0.0110110575333238,-0.0107987970113754,-0.000846197654027492,0,
00:00:04.44,-0.00162980915047228,-0.0150082157924771,0.0154236434027553,-0.00103869882877916,0,
00:00:04.444,-0.00856701284646988,0.0104684522375464,-0.0122082652524114,-0.000641323567833751,0,
00:00:04.448,-0.00108766986522824,-0.00164062634576112,0.00582360429689288,-8.76255289767869E-05,0,
00:00:04.452,0.00888132117688656,0.00152976950630546,-0.00191459874622524,0.000300397165119648,0,
00:00:04.456,0.00332825002260506,-0.00235953670926392,0.000754221575334668,0.000411698914831504,0,
00:00:04.46,-0.0113386269658804,6.59441939205863E-05,-0.0012192411813885,0.0003059430164285,0,
00:00:04.464,-0.00358156417496502,-0.00863662827759981,0.00837894342839718,0.000115012342575938,0,
00:00:04.468,0.00875418074429035,0.00712482212111354,-0.00673392461612821,-4.53175744041801E-05,0,
00:00:04.472,0.000687973049934953,0.00802999176084995,-0.0074456762522459,-0.000119487114716321,0,
00:00:04.476,-0.00564446672797203,-0.00759168760851026,0.00801889225840569,-0.000111588095023762,0,
00:00:04.48,0.00279516819864511,-0.000794696970842779,0.000933381845243275,-5.91100215387996E-05,0,
00:00:04.484,0.00512814847752452,0.00109295488800853,-0.00118997425306588,-3.08336984744528E-06,0,
00:00:04.488,0.0029251032974571,0.00500814942643046,-0.00520499236881733,3.09751885652076E-05,0,
00:00:04.492,-0.0109017649665475,-0.00383112416602671,0.00365885882638395,3.75722811440937E-05,0,
00:00:04.496,-0.00331633654423058,-0.00573287671431899,0.00564837781712413,2.52843128691893E-05,0,
00:00:04.5,0.00659586861729622,0.00116334983613342,-0.00116040313150734,7.234417807922E-06,0,
00:00:04.504,0.00447642896324396,0.00928462948650122,-0.00923183094710112,-6.43011890133494E-06,0,
00:00:04.508,-0.00206218496896327,-0.00993878021836281,0.0099980728700757,-0.00208743987604976,0,
00:00:04.512,-0.00687122298404574,0.00364613463170826,-0.00360849010758102,0.00196561263874173,0,
00:00:04.516,0.00688757235184312,0.00174860341940075,-0.00173977366648614,0.00163764436729252,0,
00:00:04.52,0.00380299473181367,-0.00382955465465784,0.00381774920970201,0.000177635403815657,0,
00:00:04.524,-0.00792438723146915,0.0117786535993218,-0.0097216721624136,0.00123630720190704,0,
00:00:04.528,-0.00863953866064548,-0.00944699253886938,0.00538107892498374,-0.00299953576177359,0,
00:00:04.532,0.00934539176523685,-0.00483176484704018,0.0051589272916317,-0.00227056420408189,0,
00:00:04.536,0.00759629486128688,0.00269188289530575,-0.00122528267093003,-0.00233412533998489,0,
00:00:04.54,0.000934690295252949,0.00962194800376892,-0.00859675370156765,0.00311826728284359,0,
00:00:04.544,-0.00777782313525677,-0.00439113983884454,0.00458136713132262,0.00515324296429753,0,
00:00:04.548,-0.00463739596307278,-0.0115191899240017,0.0132008884102106,-0.00294196652248502,0,
00:00:04.552,0.00663269823417068,0.0020447161514312,-0.00664438214153051,-0.000315582932671532,0,
00:00:04.556,-0.00276330462656915,0.0144740985706449,-0.0124490559101105,9.04018161236309E-05,0,
00:00:04.56,-0.00179862405639142,-0.00330990529619157,0.000614130578469485,-0.000138300427352078,0,
00:00:04.564,0.00097812688909471,-0.00541209895163774,0.00687044253572822,-0.000309319206280634,0,
00:00:04.568,0.00850809179246426,0.00399010442197323,-0.00215075956657529,-0.000266597984591499,0,
00:00:04.572,5.25322138855699E-05,-0.000884984794538468,0.00374235259369016,-9.65142535278574E-05,0,
00:00:04.576,-0.00833296682685614,-0.0150362895801663,0.0106945559382439,6.95048001944087E-05,0,
00:00:04.58,-0.00441034976392984,0.0161799788475037,-0.0145586226135492,0.000152266307850368,0,
00:00:04.584,0.00523415300995111,-0.000578874489292502,-0.000640350801404566,0.000143477795063518,0,
00:00:04.588,0.0040144482627511,-0.00111867883242667,-0.00191103434190154,-0.00199523032642901,0,
00:00:04.592,-0.00584633648395538,0.000959839904680848,0.00107155938167125,0.00198605144396424,0,
00:00:04.596,-0.002238511107862,-0.00270858779549599,0.0050549665465951,0.00368365738540888,0,
00:00:04.6,0.00863417237997055,-0.0101909302175045,0.0131973782554269,-0.0018438973929733,0,
00:00:04.604,0.00632712105289102,0.0161486137658358,-0.0206264648586512,-0.0025174985639751,0,
00:00:04.608,-0.00807506404817104,-0.0022919496987015,0.00368117331527174,-0.00329161109402776,0,
00:00:04.612,-0.00661317119374871,-0.00261440849862993,-0.000855517864692956,0.00426948722451925,0,
00:00:04.616,0.00306400936096907,-0.00168724998366088,0.0026517363730818,0.000626373162958771,0,
00:00:04.62,0.00507759349420667,0.00159081176389009,0.00222498923540115,-0.00259706377983093,0,
00:00:04.624,-0.00558075215667486,-0.00575654860585928,0.0047469362616539,0.00145216193050146,0,
00:00:04.628,-0.00713629368692636,0.00298449490219355,-0.00671733357012272,0.00145838677417487,0,
00:00:04.632,0.00960894301533699,0.00780374743044376,-0.0065803942270577,0.000274033140158281,0,
00:00:04.636,0.00910919066518545,-0.00460417615249753,0.00854118727147579,-0.000646495085675269,0,
00:00:04.64,0.000264322152361274,-0.00202876795083284,0.000900832121260464,-0.00087910913862288,0,
00:00:04.644,-0.0140049485489726,-0.00449330825358629,0.000532021280378103,-0.000587684276979417,0,
00:00:04.648,-0.0108577283099294,0.01273597124964,-0.0117018921300769,-0.000126607439597137,0,
00:00:04.652,0.0170909687876701,-0.00398113625124097,0.0078426506370306,0.00022032723063603,0,
00:00:04.656,0.0045740082859993,-0.0120268864557147,0.0109297381713986,-0.00173534511122853,0,
00:00:04.66,0.000301051361020654,0.00570808257907629,-0.00958526693284512,0.00432097632437944,0,
00:00:04.664,-0.00961149856448174,0.00414191372692585,-0.00302641279995441,-0.000218415123526938,0,
00:00:04.668,-0.000232262478675693,0.00361559190787375,-0.001783941173926,-0.00356518942862749,0,
00:00:04.672,0.00648090289905667,-0.00870287604629993,0.00958689581602812,0.000860333733726293,0,
00:00:04.676,-0.00423573795706034,0.013291341252625,-0.0113948853686452,0.00136139278765768,0,
00:00:04.68,-0.00292274146340787,-0.0146592957898974,0.0119747389107943,0.00259489379823208,0,
00:00:04.684,0.00484011508524418,0.0067073255777359,-0.00902138464152813,-0.00435252021998167,0,
00:00:04.688,0.00697835115715861,-0.00583762628957629,0.00325779221020639,-0.000288320181425661,0,
00:00:04.692,-0.00880382116883993,-0.000167415710166097,0.00509778596460819,0.000973775633610785,0,
00:00:04.696,-0.00595656223595142,0.00928403064608574,-0.0104207508265972,0.000854197656735778,0,
00:00:04.7,0.000533030834048986,-0.00273135141469538,0.006214605178684,0.000303797860397026,0,
00:00:04.704,0.00425519328564405,-0.00752591295167804,0.00434578070417047,-0.000151063795783557,0,
00:00:04.708,0.00838478840887547,0.0155827850103378,-0.0134447682648897,-0.000328837893903255,0,
00:00:04.712,-0.00399082526564598,-0.0136248879134655,0.0101303933188319,-0.000270140531938523,0,
00:00:04.716,0.000399271870264784,0.00428674602881074,-0.00172331964131445,-0.000105908256955445,0,
00:00:04.72,0.00378948030993342,0.00139152677729726,-0.00214333483017981,4.3195286707487E-05,0,
00:00:04.724,-0.00550283771008253,-0.00945436209440231,0.00848043151199818,0.000115474162157625,0,
00:00:04.728,-0.00703457556664944,0.0081284549087286,-0.00834867358207703,0.000109685672214255,0,
00:00:04.732,0.00278948340564966,0.0013750201324001,-0.000958144199103117,5.97447251493577E-05,0,
00:00:04.736,0.00348660303279758,-0.00520453648641706,0.00580101693049073,5.02691455039894E-06,0,
00:00:04.74,0.00137635332066566,0.0089420061558485,-0.00853203609585762,-2.91231335722841E-05,0,
00:00:04.744,-0.0087964590638876,-0.00530456705018878,0.00540093798190355,-3.66110034519807E-05,0,
00:00:04.748,0.00464074546471238,-0.00460327044129372,0.00445741508156061,-2.52891968557378E-05,0,
00:00:04.752,0.00556726893410087,0.00594670092687011,-0.00618073297664523,-7.82169263402466E-06,0,
00:00:04.756,0.00824744626879692,0.00495253503322601,-0.00721765216439962,5.74440309719648E-06,0,
00:00:04.76,-0.00932805892080069,-0.0161657556891441,0.0201332438737154,1.12063726191991E-05,0,
00:00:04.764,-0.00979482289403677,-0.00168800260871649,0.00136825942900032,9.58521195570938E-06,0,
00:00:04.768,0.00906399078667164,0.0211050380021334,-0.022505646571517,4.51918049293454E-06,0,
00:00:04.772,-0.00499055720865726,-0.00432453257963061,0.00337124895304441,-3.84951647447451E-07,0,
00:00:04.776,-0.000139618976390921,-0.0137088736519217,0.0114873889833689,-3.08770518131496E-06,0,
00:00:04.78,0.00483268173411489,0.0132256187498569,-0.00877101998776197,-3.34204105456593E-06,0,
00:00:04.784,0.00505802500993013,-0.00364143308252096,0.00176579609978944,-0.00207783537916839,0,
00:00:04.788,0.00408376567065716,-0.00461072521284223,0.00755785312503576,0.00197490258142352,0,
00:00:04.792,-0.0137572046369314,0.00318826176226139,-0.00444933446124196,0.00164275988936424,0,
00:00:04.796,-0.00539524061605334,5.31253463122994E-05,-0.00181531731504947,0.000178112255525775,0,
00:00:04.8,0.00228503625839949,-0.00681560300290585,0.00600572023540735,-0.000841913803014904,0,
00:00:04.804,0.0116187138482928,0.00980067439377308,-0.00958884879946709,-0.00102731212973595,0,
00:00:04.808,0.00057503511197865,0.00318934861570597,-0.00247656530700624,-0.000630673894193023,0,
00:00:04.812,-0.00734403030946851,-0.00440281303599477,0.00507109891623259,-8.19814667920582E-05,0,
00:00:04.816,0.000990605214610696,-9.95340087683871E-05,0.000428040366386995,0.000300689425785095,0,
00:00:04.82,0.00617213174700737,-0.00957195181399584,0.00954384077340364,0.000408735708333552,0,
00:00:04.824,-0.00330662308260798,0.00369640765711665,-0.00392999639734626,0.000302348693367094,0,
00:00:04.828,-0.00809573940932751,-0.00335784535855055,0.00310017564333975,0.000112592824734747,0,
00:00:04.832,0.00250881933607161,0.0120499236509204,-0.0122127663344145,0.0020297693554312,0,
00:00:04.836,0.0083465650677681,0.00388339417986572,-0.00392145570367575,-0.00416997540742159,0,
00:00:04.84,0.000350003276253119,-0.00904959067702293,0.00910069514065981,0.00022280630946625,0,
00:00:04.844,-0.0074750273488462,0.00493879010900855,-0.00485749077051878,0.00140682340133935,0,
00:00:04.848,-0.00352877588011324,-0.0112040396779776,0.0112681109458208,0.00101711123716086,0,
00:00:04.852,0.00778962718322873,0.00187697703950107,-0.00185047101695091,0.000215816311538219,0,
00:00:04.856,-0.00212138704955578,0.0108541753143072,-0.0108610037714243,-0.00243558827787638,0,
00:00:04.86,-0.00178698170930147,0.00105669687036425,-0.00108007655944675,0.00352716259658337,0,
00:00:04.864,-0.0014968360774219,-0.0231856759637594,0.0231626648455858,-0.000708896084688604,0,
00:00:04.868,0.00791842397302389,0.0107004465535283,-0.0107133565470576,-0.00365515821613371,0,
00:00:04.872,0.00747915264219046,0.0183521471917629,-0.0183536037802696,0.00105050031561404,0,
00:00:04.876,-0.0126543361693621,-0.0107749309390783,0.010780799202621,0.00371317006647587,0,
00:00:04.88,-0.00839392002671957,-0.00085509498603642,0.000862726010382175,-0.00332269165664911,0,
00:00:04.884,0.0150733580812812,-0.00216852501034737,0.00217390898615122,0.000112898262159433,0,
00:00:04.888,-0.00606572581455112,0.00496756471693516,-0.00496580777689815,0.000814829079899937,0,
00:00:04.892,-0.00564848678186536,-0.0120658567175269,0.0120647381991148,0.0004481773939915,0,
00:00:04.896,4.60717747046147E-05,-0.00223649339750409,0.00223417324014008,-5.68256837141234E-05,0,
00:00:04.9,0.00999407842755318,0.0176623165607452,-0.0176643431186676,-0.000319159822538495,0,
00:00:04.904,0.000159864008310251,-0.00508465804159641,0.00508367409929633,-0.000305730005493388,0,
00:00:04.908,-0.00692074280232191,0.000484706077259034,0.0015911222435534,-0.000141910815727897,0,
00:00:04.912,0.00164597074035555,-0.00251321215182543,-0.00153725920245051,3.01591699098935E-05,0,
00:00:04.916,0.00247250031679869,-0.00196610298007727,0.00230008317157626,0.000125959006254561,0,
00:00:04.92,0.00490013509988785,-0.00250131217762828,0.00396675756201148,-0.00194409093819559,0,
00:00:04.924,-0.00477188220247626,0.00269454042427242,-0.0016746676992625,0.00413114903494716,0,
00:00:04.928,-0.00670295860618353,0.0068431687541306,-0.00665841391310096,-0.00239305174909532,0,
00:00:04.932,0.000642739469185472,-0.0071739424020052,0.00885243061929941,0.00255791214294732,0,
00:00:04.936,0.00720725255087018,0.00212411163374782,-0.00464850571006536,-0.00139498105272651,0,
