Elapsed Time,Ch1,BioRadio Event,
00:00:00,1.79554975032806,0,
00:00:00.004,-1.70657813549042,0,
00:00:00.008,-1.42234253883362,0,
00:00:00.012,-0.156856074929237,0,
00:00:00.016,0.732839941978455,0,
00:00:00.02,0.889411985874176,0,
00:00:00.024,0.545000731945038,0,
00:00:00.028,0.0702528730034828,0,
00:00:00.032,-0.260458201169968,0,
00:00:00.036,-0.353600084781647,0,
00:00:00.04,-0.261401861906052,0,
00:00:00.044,-0.097242571413517,0,
00:00:00.048,0.0398814715445042,0,
00:00:00.052,0.10282401740551,0,
00:00:00.056,0.093430407345295,0,
00:00:00.06,0.0522397421300411,0,
00:00:00.064,0.00390350865200162,0,
00:00:00.068,-0.0245031714439392,0,
00:00:00.072,-0.0350374579429626,0,
00:00:00.076,-0.0263141114264727,0,
00:00:00.08,-0.00282914098352194,0,
00:00:00.084,0.00395117932930589,0,
00:00:00.088,0.0118592511862516,0,
00:00:00.092,0.0120392935350537,0,
00:00:00.096,5.57935891265515E-05,0,
00:00:00.1,0.00122980726882815,0,
00:00:00.104,-0.0042556980624795,0,
00:00:00.108,-0.00422095973044634,0,
00:00:00.112,-0.0019289858173579,0,
00:00:00.116,0.000331008137436584,0,
00:00:00.12,-0.000587220711167902,0,
00:00:00.124,0.00346133718267083,0,
00:00:00.128,0.00245738518424332,0,
00:00:00.132,0.000231381636695005,0,
00:00:00.136,-0.0012664016103372,0,
00:00:00.14,-0.00155328086111695,0,
00:00:00.144,-0.00099184038117528,0,
00:00:00.148,-0.00226800236850977,0,
00:00:00.152,0.00235974416136742,0,
00:00:00.156,0.00428778445348144,0,
00:00:00.16,-0.00135859637521207,0,
00:00:00.164,-0.00023199210409075,0,
00:00:00.168,-0.0053076664917171,0,
00:00:00.172,0.000382123078452423,0,
00:00:00.176,0.0022525847889483,0,
00:00:00.18,0.00186379277147353,0,
00:00:00.184,0.00274269096553326,0,
00:00:00.188,-0.00440551806241274,0,
00:00:00.192,-0.000459326518466696,0,
00:00:00.196,0.000770584098063409,0,
00:00:00.2,0.000692008412443101,0,
00:00:00.204,0.000218982007936575,0,
00:00:00.208,-0.000162549229571596,0,
00:00:00.212,-0.000296298967441544,0,
00:00:00.216,-0.000227340337005444,0,
00:00:00.22,-7.59843533160165E-05,0,
00:00:00.224,5.26346484548412E-05,0,
00:00:00.228,0.000108900116174482,0,
00:00:00.232,9.66118604992516E-05,0,
00:00:00.236,4.85177006339654E-05,0,
00:00:00.24,-2.78080761972888E-07,0,
00:00:00.244,-2.86758877336979E-05,0,
00:00:00.248,-3.29871036228724E-05,0,
00:00:00.252,-2.13622115552425E-05,0,
00:00:00.256,-5.40361133971601E-06,0,
00:00:00.26,0.00208202167414129,0,
00:00:00.264,-0.00196495582349598,0,
00:00:00.268,-0.00370949879288673,0,
00:00:00.272,0.00180183735210449,0,
00:00:00.276,0.00248401495628059,0,
00:00:00.28,0.00120171147864312,0,
00:00:00.284,0.00186063605360687,0,
00:00:00.288,-0.00292299198918045,0,
00:00:00.292,-0.00257382518611848,0,
00:00:00.296,-0.000666871666908264,0,
00:00:00.3,0.000842342036776245,0,
00:00:00.304,0.00132472172845155,0,
00:00:00.308,0.000979275908321142,0,
00:00:00.312,0.00238876673392951,0,
00:00:00.316,-0.00428800331428647,0,
00:00:00.32,-0.000136657312395982,0,
00:00:00.324,0.00105465075466782,0,
00:00:00.328,0.00289393472485244,0,
00:00:00.332,-0.00178413803223521,0,
00:00:00.336,-0.00191409129183739,0,
00:00:00.34,-0.000585141708143055,0,
00:00:00.344,0.00262546818703413,0,
00:00:00.348,-0.00311014335602522,0,
00:00:00.352,0.00104253820609301,0,
00:00:00.356,0.00376773159950972,0,
00:00:00.36,-0.0011331137502566,0,
00:00:00.364,-0.00180780945811421,0,
00:00:00.368,-0.00295697338879108,0,
00:00:00.372,0.00419293716549873,0,
00:00:00.376,0.000314929871819913,0,
00:00:00.38,-0.000849872070830315,0,
00:00:00.384,-0.000726588710676879,0,
00:00:00.388,-0.000228773642447777,0,
00:00:00.392,0.000163157805218361,0,
00:00:00.396,0.000298963306704536,0,
00:00:00.4,0.000228569333557971,0,
00:00:00.404,7.53601780161262E-05,0,
00:00:00.408,-0.00212995219044387,0,
00:00:00.412,0.00394081324338913,0,
00:00:00.416,-0.0004305551701691,0,
00:00:00.42,-0.00151344446931034,0,
00:00:00.424,-0.00101899786386639,0,
00:00:00.428,-0.000155682559125125,0,
00:00:00.432,-0.00164538738317788,0,
00:00:00.436,0.00462143728509545,0,
00:00:00.44,5.46706396562513E-05,0,
00:00:00.444,-0.00136350723914802,0,
00:00:00.448,-0.00113680947106332,0,
00:00:00.452,-0.000383124483050779,0,
00:00:00.456,0.000234907565754838,0,
00:00:00.46,0.000476878980407491,0,
00:00:00.464,0.000394111120840535,0,
00:00:00.468,0.000163237535161898,0,
00:00:00.472,0.00202648318372667,0,
00:00:00.476,-0.00213137781247497,0,
00:00:00.48,-0.0017950851470232,0,
00:00:00.484,-0.000263175723375753,0,
00:00:00.488,-0.00124322972260416,0,
00:00:00.492,0.0051173223182559,0,
00:00:00.496,0.00034783998853527,0,
00:00:00.5,-0.00134747580159456,0,
00:00:00.504,-0.00130888202693313,0,
00:00:00.508,-0.000601034320425242,0,
00:00:00.512,7.94015359133482E-05,0,
00:00:00.516,0.000422937097027898,0,
00:00:00.52,0.00042218278395012,0,
00:00:00.524,-0.0018486708868295,0,
00:00:00.528,0.00405920902267098,0,
00:00:00.532,-0.000460320763522759,0,
00:00:00.536,-0.00161805958487093,0,
00:00:00.54,-0.00112287106458098,0,
00:00:00.544,-0.00021465728059411,0,
00:00:00.548,0.000422965676989406,0,
00:00:00.552,0.000596241501625627,0,
00:00:00.556,0.000422229990363121,0,
00:00:00.56,0.000125956241390668,0,
00:00:00.564,-0.00010882223432418,0,
00:00:00.568,-0.000203039176994935,0,
00:00:00.572,-0.000172523563378491,0,
00:00:00.576,-8.11746140243486E-05,0,
00:00:00.58,6.93755191605305E-06,0,
00:00:00.584,5.54640973859932E-05,0,
00:00:00.588,6.00386556470767E-05,0,
00:00:00.592,3.69472472812049E-05,0,
00:00:00.596,0.00208336813375354,0,
00:00:00.6,-0.00406393501907587,0,
00:00:00.604,0.00238980096764863,0,
00:00:00.608,-0.00260084052570164,0,
00:00:00.612,0.0034230649471283,0,
00:00:00.616,-0.000323461747029796,0,
00:00:00.62,-0.00308948243036866,0,
00:00:00.624,0.00351543049328029,0,
00:00:00.628,-0.000267365743638948,0,
00:00:00.632,-0.00109396176412702,0,
00:00:00.636,-0.000666776613797992,0,
00:00:00.64,-2.30907007789938E-05,0,
00:00:00.644,0.00243578827939928,0,
00:00:00.648,-0.00364879448898137,0,
00:00:00.652,0.00263982196338475,0,
00:00:00.656,-0.00049386516911909,0,
00:00:00.66,-0.00074620678788051,0,
00:00:00.664,-0.000148734165122733,0,
00:00:00.668,0.0003356532251928,0,
00:00:00.672,0.000442657270468771,0,
00:00:00.676,0.000270421151071787,0,
00:00:00.68,0.00209664343856275,0,
00:00:00.684,-0.00420426996424794,0,
00:00:00.688,0.000134404734126292,0,
00:00:00.692,0.00132044742349535,0,
00:00:00.696,0.000967356492765248,0,
00:00:00.7,0.000208331839530729,0,
00:00:00.704,-0.000339445046847686,0,
00:00:00.708,-0.000495999120175838,0,
00:00:00.712,-0.00035519216908142,0,
00:00:00.716,-0.000107078427390661,0,
00:00:00.72,9.14577394723892E-05,0,
00:00:00.724,0.000171954030520283,0,
00:00:00.728,0.000146773745655082,0,
00:00:00.732,6.96084898663685E-05,0,
00:00:00.736,-5.23960807186086E-06,0,
00:00:00.74,-4.67380814370699E-05,0,
00:00:00.744,-5.09506207890809E-05,0,
00:00:00.748,-3.15512406814378E-05,0,
00:00:00.752,-0.00208244915120304,0,
00:00:00.756,0.00406184094026685,0,
00:00:00.76,-0.00031697764643468,0,
00:00:00.764,-0.00145245331805199,0,
00:00:00.768,-0.00101480784360319,0,
00:00:00.772,-0.000186501565622166,0,
00:00:00.776,0.000392311863834038,0,
00:00:00.78,0.000544339418411255,0,
00:00:00.784,-0.00169560802169144,0,
00:00:00.788,0.00208302773535252,0,
00:00:00.792,0.00153672334272414,0,
00:00:00.796,-1.12848347271211E-05,0,
00:00:00.8,-0.00100030784960836,0,
00:00:00.804,-0.00110014213714749,0,
00:00:00.808,-0.000622359395492822,0,
00:00:00.812,-2.98068353004055E-05,0,
00:00:00.816,0.00035612253122963,0,
00:00:00.82,0.000442285992903635,0,
00:00:00.824,0.00238448590971529,0,
00:00:00.828,-0.00395077792927623,0,
00:00:00.832,0.000269382202532142,0,
00:00:00.836,0.00133264414034784,0,
00:00:00.84,0.00090417981846258,0,
00:00:00.844,0.00220446917228401,0,
00:00:00.848,-0.00236978009343147,0,
00:00:00.852,-0.00423086294904351,0,
00:00:00.856,0.00353129045106471,0,
00:00:00.86,0.000426644401159137,0,
00:00:00.864,-0.000325166824040934,0,
00:00:00.868,-0.000207491451874375,0,
00:00:00.872,4.26840051659383E-05,0,
00:00:00.876,0.000158984126755968,0,
00:00:00.88,0.000127516075735912,0,
00:00:00.884,2.91089017991908E-05,0,
00:00:00.888,-5.6455875892425E-05,0,
00:00:00.892,0.00198536226525903,0,
00:00:00.896,-0.00205056951381266,0,
00:00:00.9,-0.0016776550328359,0,
00:00:00.904,-0.00225048931315541,0,
00:00:00.908,0.00284144817851484,0,
00:00:00.912,0.00269534392282367,0,
00:00:00.916,0.000823611917439848,0,
00:00:00.92,-0.000757554429583251,0,
00:00:00.924,-0.00133390643168241,0,
00:00:00.928,0.0010281678987667,0,
00:00:00.932,-0.00444145081564784,0,
00:00:00.936,0.000519222172442824,0,
00:00:00.94,0.00399656314402819,0,
00:00:00.944,-0.00053187512094155,0,
00:00:00.948,-0.00330762984231114,0,
00:00:00.952,0.00349030713550746,0,
00:00:00.956,-0.00015563725901302,0,
00:00:00.96,-0.000962069083470851,0,
00:00:00.964,-0.000593319826293737,0,
00:00:00.968,-2.48112592089456E-05,0,
00:00:00.972,0.000309677823679522,0,
00:00:00.976,0.000342488259775564,0,
00:00:00.98,0.000189906539162621,0,
00:00:00.984,3.78510208065563E-06,0,
00:00:00.988,-0.000114815840788651,0,
00:00:00.992,-0.000138668154249899,0,
00:00:00.996,-9.46264044614509E-05,0,
00:00:01,-2.87701641354943E-05,0,
00:00:01.004,2.19684152398258E-05,0,
00:00:01.008,4.22089033236261E-05,0,
00:00:01.012,3.59489386028145E-05,0,
00:00:01.016,1.68753158504842E-05,0,
00:00:01.02,-1.50980974922277E-06,0,
00:00:01.024,-1.16036117105978E-05,0,
00:00:01.028,-1.25178939924808E-05,0,
00:00:01.032,-7.67371420806739E-06,0,
00:00:01.036,-0.00207732385024428,0,
00:00:01.04,0.00405380688607693,0,
00:00:01.044,-0.000329252186929807,0,
00:00:01.048,-0.00146193348336965,0,
00:00:01.052,-0.00309436093084514,0,
00:00:01.056,0.00386578636243939,0,
00:00:01.06,-0.00201317155733705,0,
00:00:01.064,0.00313387555070221,0,
00:00:01.068,-0.00097100023413077,0,
00:00:01.072,-0.00154203525744379,0,
00:00:01.076,-0.000728937215171754,0,
00:00:01.08,0.00017452664906159,0,
00:00:01.084,0.000621357641648501,0,
00:00:01.088,0.000584051827900112,0,
00:00:01.092,0.000284504843875766,0,
00:00:01.096,-2.97267142741475E-05,0,
00:00:01.1,-0.000209724283195101,0,
00:00:01.104,-0.000229148325161077,0,
00:00:01.108,-0.000143842276884243,0,
00:00:01.112,-3.27859379467554E-05,0,
00:00:01.116,4.60899245808832E-05,0,
00:00:01.12,7.24214987712912E-05,0,
00:00:01.124,5.6748296628939E-05,0,
00:00:01.128,0.00209901807829738,0,
00:00:01.132,-0.00198164372704923,0,
00:00:01.136,-0.00373870553448796,0,
00:00:01.14,0.00385364098474383,0,
00:00:01.144,-0.00157770421355963,0,
00:00:01.148,0.00361252878792584,0,
00:00:01.152,-0.0027930021751672,0,
00:00:01.156,0.00248965481296182,0,
00:00:01.16,-0.0012522111646831,0,
00:00:01.164,-0.00358415138907731,0,
00:00:01.168,0.00143189704976976,0,
00:00:01.172,0.00199937028810382,0,
00:00:01.176,0.000894540862645954,0,
00:00:01.18,-0.000257701292866841,0,
00:00:01.184,-0.000799592584371567,0,
00:00:01.188,-0.000726604775991291,0,
00:00:01.192,0.0017406550468877,0,
00:00:01.196,-0.00191523949615657,0,
00:00:01.2,-0.00344075472094119,0,
00:00:01.204,0.00416441401466727,0,
00:00:01.208,-0.00139073247555643,0,
00:00:01.212,0.00157174759078771,0,
00:00:01.216,0.00326513685286045,0,
00:00:01.22,-0.00199462985619903,0,
00:00:01.224,-0.00245920196175575,0,
00:00:01.228,-0.00109171099029481,0,
00:00:01.232,-0.00177334633190185,0,
00:00:01.236,0.00294400029815733,0,
00:00:01.24,0.00461467076092958,0,
00:00:01.244,-0.00136488897260278,0,
00:00:01.248,-0.00253070751205087,0,
00:00:01.252,-0.00359858060255647,0,
00:00:01.256,0.00391721958294511,0,
00:00:01.26,-0.00167902978137136,0,
00:00:01.264,0.00139403634238988,0,
00:00:01.268,0.001183683401905,0,
00:00:01.272,0.000103352598671336,0,
00:00:01.276,-0.000656538642942905,0,
00:00:01.28,-0.000792610226199031,0,
00:00:01.284,-0.000489376427140087,0,
00:00:01.288,-6.99297088431194E-05,0,
00:00:01.292,0.000224366347538307,0,
00:00:01.296,0.000309850234771147,0,
00:00:01.3,0.000231186568271369,0,
00:00:01.304,8.7645290477667E-05,0,
00:00:01.308,-3.33694260916673E-05,0,
00:00:01.312,-8.96892888704315E-05,0,
00:00:01.316,-8.41253859107383E-05,0,
00:00:01.32,-4.47843449364882E-05,0,
00:00:01.324,-2.57747183241008E-06,0,
00:00:01.328,2.31907633860828E-05,0,
00:00:01.332,2.82876208075322E-05,0,
00:00:01.336,1.91123253898695E-05,0,
00:00:01.34,5.53463860342163E-06,0,
00:00:01.344,-4.78408901471994E-06,0,
00:00:01.348,0.00206701597198844,0,
00:00:01.352,-0.00405842950567603,0,
00:00:01.356,0.00240572006441653,0,
00:00:01.36,-0.000509890727698803,0,
00:00:01.364,-0.000619822938460857,0,
00:00:01.368,-0.00206534401513636,0,
00:00:01.372,0.00242253486067057,0,
00:00:01.376,0.0021210580598563,0,
00:00:01.38,0.000424365513026714,0,
00:00:01.384,-0.000869812036398798,0,
00:00:01.388,-0.00122270942665637,0,
00:00:01.392,-0.000849846343044192,0,
00:00:01.396,-0.000225308802328072,0,
00:00:01.4,0.000261554057942703,0,
00:00:01.404,0.000446790072601289,0,
00:00:01.408,0.0003690937301144,0,
00:00:01.412,0.000167477410286665,0,
00:00:01.416,-2.15868585655699E-05,0,
00:00:01.42,-0.00012271583545953,0,
00:00:01.424,-0.000129173640743829,0,
00:00:01.428,-7.75263324612752E-05,0,
00:00:01.432,-1.40695983645855E-05,0,
00:00:01.436,2.90554744424298E-05,0,
00:00:01.44,0.00211756024509668,0,
00:00:01.444,-0.0040198341012001,0,
00:00:01.448,0.00242074648849666,0,
00:00:01.452,-0.000515103805810213,0,
00:00:01.456,-0.000634633703157306,0,
00:00:01.46,-3.6259411899664E-06,0,
00:00:01.464,0.00043962846393697,0,
00:00:01.468,0.00255425740033388,0,
00:00:01.472,-0.0037999611813575,0,
00:00:01.476,0.0023867036215961,0,
00:00:01.48,-0.000702170887961984,0,
00:00:01.484,-0.000840588472783566,0,
00:00:01.488,-0.000136554779601283,0,
00:00:01.492,0.000404776277719066,0,
00:00:01.496,0.00051539862761274,0,
00:00:01.5,0.000314072240144014,0,
00:00:01.504,2.87849234155146E-05,0,
00:00:01.508,-0.000169523555086926,0,
00:00:01.512,-0.000222392234718427,0,
00:00:01.516,-0.000162155876751058,0,
00:00:01.52,-5.89928822591901E-05,0,
00:00:01.524,0.0021019100677222,0,
00:00:01.528,-0.00398651789873838,0,
00:00:01.532,0.000392642337828875,0,
00:00:01.536,0.0014958658721298,0,
00:00:01.54,0.00102074875030667,0,
00:00:01.544,0.000167998805409297,0,
00:00:01.548,-0.000417150586144999,0,
00:00:01.552,-0.000562208995688707,0,
00:00:01.556,-0.000386288069421425,0,
00:00:01.56,-0.00218009972013533,0,
00:00:01.564,0.00416391063481569,0,
00:00:01.568,-0.000138284958666191,0,
00:00:01.572,-0.00337988417595625,0,
00:00:01.576,0.00102800084277987,0,
00:00:01.58,0.00352270808070898,0,
00:00:01.584,-0.00145536672789603,0,
00:00:01.588,-0.00199248525314033,0,
00:00:01.592,-0.000855763151776046,0,
00:00:01.596,0.000314180069835857,0,
00:00:01.6,0.000852340774144977,0,
00:00:01.604,0.000760066730435938,0,
00:00:01.608,0.000345602427842095,0,
00:00:01.612,-6.64156686980277E-05,0,
00:00:01.616,-0.00236588134430349,0,
00:00:01.62,0.00374951073899865,0,
00:00:01.624,-0.000514229293912649,0,
00:00:01.628,-0.00149843527469784,0,
00:00:01.632,-0.000952758709900081,0,
00:00:01.636,-8.79214276210405E-05,0,
00:00:01.64,0.000469957973109558,0,
00:00:01.644,0.000576430466026068,0,
00:00:01.648,0.000371862115571275,0,
00:00:01.652,7.93505823821761E-05,0,
00:00:01.656,-0.00013321109872777,0,
00:00:01.66,-0.000203960691578686,0,
00:00:01.664,-0.000159325776621699,0,
00:00:01.668,-0.00214116903953254,0,
00:00:01.672,0.00199277838692069,0,
00:00:01.676,0.00170042691752315,0,
00:00:01.68,0.000234298830037005,0,
00:00:01.684,-0.00081070518353954,0,
00:00:01.688,-0.00102410104591399,0,
00:00:01.692,-0.000645207008346915,0,
00:00:01.696,0.00197513517923653,0,
00:00:01.7,-0.00376347335986793,0,
00:00:01.704,0.00281362235546112,0,
00:00:01.708,-0.000205151678528637,0,
00:00:01.712,-0.000503981136716902,0,
00:00:01.716,-3.32191775669344E-05,0,
00:00:01.72,0.000329160568071529,0,
00:00:01.724,0.000368112989235669,0,
00:00:01.728,0.00226395018398762,0,
00:00:01.732,-0.00200593797490001,0,
00:00:01.736,-0.00180664286017418,0,
00:00:01.74,-0.000359058059984818,0,
00:00:01.744,0.000724311452358961,0,
00:00:01.748,0.000995537615381181,0,
00:00:01.752,0.000662186532281339,0,
00:00:01.756,0.000136863818624988,0,
00:00:01.76,-0.000255683844443411,0,
00:00:01.764,-0.000388787186238915,0,
00:00:01.768,-0.000305584369925782,0,
00:00:01.772,-0.000127974402857944,0,
00:00:01.776,3.01447416859446E-05,0,
00:00:01.78,0.00218532420694828,0,
00:00:01.784,-0.00394212594255805,0,
00:00:01.788,0.000395188282709569,0,
00:00:01.792,0.00147284870035946,0,
00:00:01.796,0.000992661574855447,0,
00:00:01.8,-0.00192677555605769,0,
00:00:01.804,0.00362842972390354,0,
00:00:01.808,-0.00296654249541461,0,
00:00:01.812,0.000132718269014731,0,
00:00:01.816,0.000525223033037037,0,
00:00:01.82,0.00425982987508178,0,
00:00:01.824,-0.0104290740564466,0,
00:00:01.828,0.00439740205183625,0,
00:00:01.832,0.000342936371453106,0,
00:00:01.836,0.00464013405144215,0,
00:00:01.84,-0.000843236455693841,0,
00:00:01.844,-0.00228101992979646,0,
00:00:01.848,-0.00160968059208244,0,
00:00:01.852,0.00170887028798461,0,
00:00:01.856,-0.00143593514803797,0,
00:00:01.86,-0.000820507877506316,0,
00:00:01.864,0.00043723318958655,0,
00:00:01.868,0.00105826766230166,0,
00:00:01.872,0.00090954708866775,0,
00:00:01.876,0.000364163279300556,0,
00:00:01.88,-0.000158784736413509,0,
00:00:01.884,0.0016521280631423,0,
00:00:01.888,-0.00446129543706775,0,
00:00:01.892,0.000101125377113931,0,
00:00:01.896,-0.000641404476482421,0,
00:00:01.9,0.00309476931579411,0,
00:00:01.904,0.00403567077592015,0,
00:00:01.908,-0.00209999037906528,0,
00:00:01.912,-0.00300117954611778,0,
00:00:01.916,0.000470280705485493,0,
00:00:01.92,-0.00398680660873652,0,
00:00:01.924,0.00342603400349617,0,
00:00:01.928,0.00059341877931729,0,
00:00:01.932,-0.00204848870635033,0,
00:00:01.936,0.00414392724633217,0,
00:00:01.94,-0.000180230141268112,0,
00:00:01.944,-0.00137925054877996,0,
00:00:01.948,-0.00313274352811277,0,
00:00:01.952,0.00166383315809071,0,
00:00:01.956,0.00189524202141911,0,
00:00:01.96,0.00062399689340964,0,
00:00:01.964,0.00157771399244666,0,
00:00:01.968,-0.00495678884908557,0,
00:00:01.972,0.00170986086595803,0,
00:00:01.976,-0.000746348407119513,0,
00:00:01.98,-0.00253681838512421,0,
00:00:01.984,0.00232034479267895,0,
00:00:01.988,0.00238879024982452,0,
00:00:01.992,0.00288453954271972,0,
00:00:01.996,-0.00464450241997838,0,
00:00:02,-0.000808259646873921,0,
00:00:02.004,0.000537845538929105,0,
00:00:02.008,0.00065225810976699,0,
00:00:02.012,0.000324662687489763,0,
00:00:02.016,-9.01813018572284E-06,0,
00:00:02.02,-0.00017690283129923,0,
00:00:02.024,-0.000177618145244196,0,
00:00:02.028,-8.78229620866477E-05,0,
00:00:02.032,1.00100851341267E-05,0,
00:00:02.036,6.65748375467956E-05,0,
00:00:02.04,-0.00200317217968404,0,
00:00:02.044,0.0040966123342514,0,
00:00:02.048,-0.000323012791341171,0,
00:00:02.052,-0.00355552905239165,0,
00:00:02.056,0.000932485039811581,0,
00:00:02.06,0.00143909768667072,0,
00:00:02.064,0.00264250906184316,0,
00:00:02.068,-0.00434291874989867,0,
00:00:02.072,0.00177072815131396,0,
00:00:02.076,-0.00310225947760046,0,
00:00:02.08,0.00324424402788281,0,
00:00:02.084,-0.000213901977986097,0,
00:00:02.088,-0.000770741084124893,0,
00:00:02.092,-0.000313666387228295,0,
00:00:02.096,0.000182457471964881,0,
00:00:02.1,0.0024523395113647,0,
00:00:02.104,-0.00168396113440394,0,
00:00:02.108,-0.00155469565652311,0,
00:00:02.112,-0.000264132831944153,0,
00:00:02.116,0.000681843550410122,0,
00:00:02.12,0.00088845012942329,0,
00:00:02.124,0.000562142347916961,0,
00:00:02.128,8.34378297440708E-05,0,
00:00:02.132,-0.000259058870142326,0,
00:00:02.136,0.00171430152840912,0,
00:00:02.14,-0.0043231607414782,0,
00:00:02.144,0.000228077726205811,0,
00:00:02.148,0.00150186044629663,0,
00:00:02.152,0.00112375861499459,0,
00:00:02.156,0.00235931039787829,0,
00:00:02.16,-0.0043949605897069,0,
00:00:02.164,0.00186400802340358,0,
00:00:02.168,-0.000919617828913033,0,
00:00:02.172,-0.000763193005695939,0,
00:00:02.176,9.18443838600069E-05,0,
00:00:02.18,0.000628771842457354,0,
00:00:02.184,0.000642758677713573,0,
00:00:02.188,0.000330921146087348,0,
00:00:02.192,-2.60843680734979E-05,0,
00:00:02.196,-0.000242793932557106,0,
00:00:02.2,-0.000275009049801156,0,
00:00:02.204,-0.000180138144060038,0,
00:00:02.208,-4.90232450829353E-05,0,
00:00:02.212,0.00212393025867641,0,
00:00:02.216,-0.00189113558735698,0,
00:00:02.22,-0.0036486943718046,0,
00:00:02.224,0.00182896270416677,0,
00:00:02.228,0.00455561093986034,0,
00:00:02.232,-0.000794285500887781,0,
00:00:02.236,-0.00187861325684935,0,
00:00:02.24,-0.00113736523780972,0,
00:00:02.244,-9.11368624656461E-05,0,
00:00:02.248,0.000542788475286216,0,
00:00:02.252,0.000637156888842583,0,
00:00:02.256,0.000383908860385418,0,
00:00:02.26,0.00212537101469934,0,
00:00:02.264,-0.00215375609695911,0,
00:00:02.268,-0.00395817728713155,0,
00:00:02.272,0.00369860883802176,0,
00:00:02.276,0.000446591177023947,0,
00:00:02.28,-0.000407558341976255,0,
00:00:02.284,-0.000317990430630744,0,
00:00:02.288,-3.8339461752912E-05,0,
00:00:02.292,0.000129438456497155,0,
00:00:02.296,0.00014061329420656,0,
00:00:02.3,6.1508544604294E-05,0,
00:00:02.304,-2.66593597189058E-05,0,
00:00:02.308,-7.49175378587097E-05,0,
00:00:02.312,-7.47492013033479E-05,0,
00:00:02.316,-4.40926742157899E-05,0,
00:00:02.32,-7.75516582507407E-06,0,
00:00:02.324,1.67020425578812E-05,0,
00:00:02.328,2.38388893194497E-05,0,
00:00:02.332,1.78080808836967E-05,0,
00:00:02.336,6.66141204419546E-06,0,
00:00:02.34,-2.70030182036862E-06,0,
00:00:02.344,-7.00554437571554E-06,0,
00:00:02.348,0.00206927047111094,0,
00:00:02.352,-0.00405452400445938,0,
00:00:02.356,0.00240891450084746,0,
00:00:02.36,-0.00258426438085735,0,
00:00:02.364,0.00343103613704443,0,
00:00:02.368,-0.000323947140714154,0,
00:00:02.372,-0.00101892498787493,0,
00:00:02.376,-0.000541421759407967,0,
00:00:02.38,6.23254090896808E-05,0,
00:00:02.384,0.00037025980418548,0,
00:00:02.388,0.000354190997313708,0,
00:00:02.392,0.00016364456678275,0,
00:00:02.396,-3.56361706508324E-05,0,
00:00:02.4,-0.000146018050145358,0,
00:00:02.404,-0.000152066510054283,0,
00:00:02.408,-0.00216777040623128,0,
00:00:02.412,0.00403318600729108,0,
00:00:02.416,-0.00237608794122934,0,
00:00:02.42,0.000558901985641569,0,
00:00:02.424,0.0027349372394383,0,
00:00:02.428,-0.00404472509399056,0,
00:00:02.432,0.00195828871801496,0,
00:00:02.436,-0.00307904602959752,0,
00:00:02.44,0.0031674955971539,0,
00:00:02.444,-0.000306378584355116,0,
00:00:02.448,-0.000825350696686655,0,
00:00:02.452,-0.000318314036121592,0,
00:00:02.456,0.000211265258258209,0,
00:00:02.46,0.00248935772106051,0,
00:00:02.464,-0.00373341608792543,0,
00:00:02.468,0.000429523206548765,0,
00:00:02.472,0.00137281976640224,0,
00:00:02.476,0.000847792776767164,0,
00:00:02.48,3.58696197508834E-05,0,
00:00:02.484,0.00160539185162634,0,
00:00:02.488,-0.004598134662956,0,
00:00:02.492,0.00207130424678326,0,
00:00:02.496,-0.00264321267604828,0,
00:00:02.5,0.0014920539688319,0,
00:00:02.504,0.00184758449904621,0,
00:00:02.508,0.00284719304181635,0,
00:00:02.512,-0.00228251586668193,0,
00:00:02.516,-0.00451870448887348,0,
00:00:02.52,0.00108383980114013,0,
00:00:02.524,0.00215442571789026,0,
00:00:02.528,0.00125764217227697,0,
00:00:02.532,0.00212700315751135,0,
00:00:02.536,-0.00471949623897672,0,
00:00:02.54,-0.000429864128818735,0,
00:00:02.544,0.00100729521363974,0,
00:00:02.548,0.000958027667365968,0,
00:00:02.552,0.000392321031540632,0,
00:00:02.556,-0.000116100403829478,0,
00:00:02.56,-0.000343432882800698,0,
00:00:02.564,-0.000308840244542807,0,
00:00:02.568,-0.000142599732498638,0,
00:00:02.572,2.32894908549497E-05,0,
00:00:02.576,0.00218969886191189,0,
00:00:02.58,-0.00185577350202948,0,
00:00:02.584,-0.00364575325511396,0,
00:00:02.588,0.00181179563514888,0,
00:00:02.592,0.00453403731808066,0,
00:00:02.596,-0.000809213845059276,0,
00:00:02.6,-0.00188327813521028,0,
00:00:02.604,-0.00113404518924654,0,
00:00:02.608,-8.45842805574648E-05,0,
00:00:02.612,-0.00152736820746213,0,
00:00:02.616,0.00261514168232679,0,
00:00:02.62,0.00202573812566698,0,
00:00:02.624,0.000224825416808017,0,
00:00:02.628,0.00105265213642269,0,
00:00:02.632,-0.0032445180695504,0,
00:00:02.636,-0.0024483127053827,0,
00:00:02.64,-0.000321152387186885,0,
00:00:02.644,0.00324994558468461,0,
00:00:02.648,-0.000467091012978926,0,
00:00:02.652,-0.0027198176831007,0,
00:00:02.656,0.00202575791627169,0,
00:00:02.66,0.00213810824789107,0,
00:00:02.664,0.00065787072526291,0,
00:00:02.668,0.00142860354389995,0,
00:00:02.672,-0.0031064641661942,0,
00:00:02.676,-0.00460969097912312,0,
00:00:02.68,0.00353748118504882,0,
00:00:02.684,0.000662800681311637,0,
00:00:02.688,-0.0021280103828758,0,
00:00:02.692,0.00194669154006988,0,
00:00:02.696,0.00380815658718348,0,
00:00:02.7,-0.00168865837622434,0,
00:00:02.704,-0.00244212080724537,0,
00:00:02.708,-0.00124474870972335,0,
00:00:02.712,0.00220117159187794,0,
00:00:02.716,-0.00319014000706375,0,
00:00:02.72,0.00121356535237283,0,
00:00:02.724,0.00194449000991881,0,
00:00:02.728,0.0010377912549302,0,
00:00:02.732,-8.59055071487091E-05,0,
00:00:02.736,-0.00280149397440255,0,
00:00:02.74,0.00327873090282083,0,
00:00:02.744,-0.000782665098085999,0,
00:00:02.748,-0.00151949631981552,0,
00:00:02.752,-0.000812494254205376,0,
00:00:02.756,9.01433959370479E-05,0,
00:00:02.76,0.000595236720982939,0,
00:00:02.764,0.000617615471128374,0,
00:00:02.768,-0.0017294364515692,0,
00:00:02.772,0.00200112233869731,0,
00:00:02.776,0.00146186677739024,0,
00:00:02.78,0.00202589342370629,0,
00:00:02.784,-0.00297646340914071,0,
00:00:02.788,-0.00479636108502746,0,
00:00:02.792,0.00327714625746012,0,
00:00:02.796,-0.00157937547191978,0,
00:00:02.8,0.001898551476188,0,
00:00:02.804,0.00169049354735762,0,
00:00:02.808,0.000374549999833107,0,
00:00:02.812,-0.000652824644930661,0,
00:00:02.816,-0.000954376300796866,0,
00:00:02.82,0.00139366090297699,0,
00:00:02.824,-0.00217493227683008,0,
00:00:02.828,-0.00145538337528706,0,
00:00:02.832,0.000164908298756927,0,
00:00:02.836,-0.000942750659305602,0,
00:00:02.84,0.0031401349697262,0,
00:00:02.844,0.00433769868686795,0,
00:00:02.848,-0.00180905684828758,0,
00:00:02.852,-0.0028863251209259,0,
00:00:02.856,-0.00167572498321533,0,
00:00:02.86,-0.000103224185295403,0,
00:00:02.864,0.000854724086821079,0,
00:00:02.868,0.00100984843447804,0,
00:00:02.872,0.000634243770036846,0,
00:00:02.876,0.000121620410936885,0,
00:00:02.88,-0.000241419358644634,0,
00:00:02.884,-0.000355240772478282,0,
00:00:02.888,-0.00234716781415045,0,
00:00:02.892,0.00186877930536866,0,
00:00:02.896,0.00375325442291796,0,
00:00:02.9,-0.00169504329096526,0,
00:00:02.904,-0.00238618440926075,0,
00:00:02.908,-0.00115110725164413,0,
00:00:02.912,0.000216417043702677,0,
00:00:02.916,0.000919558806344867,0,
00:00:02.92,0.000898567901458591,0,
00:00:02.924,0.00254368386231363,0,
00:00:02.928,-0.00198083859868348,0,
00:00:02.932,-0.0019331332296133,0,
00:00:02.936,-0.000515364343300462,0,
00:00:02.94,0.000619906117208302,0,
00:00:02.944,0.000967280589975417,0,
00:00:02.948,0.000690953223966062,0,
00:00:02.952,0.000186724500963464,0,
00:00:02.956,-0.000214892890653573,0,
00:00:02.96,-0.000370834779459983,0,
00:00:02.964,-0.000308713933918625,0,
00:00:02.968,-0.000142098724609241,0,
00:00:02.972,1.56518690346275E-05,0,
00:00:02.976,0.000101058263680898,0,
00:00:02.98,0.000107647785625886,0,
00:00:02.984,6.53358438285068E-05,0,
00:00:02.988,1.25804381241323E-05,0,
00:00:02.992,-2.36443993344437E-05,0,
00:00:02.996,-3.46572996932082E-05,0,
00:00:03,-2.62039557128446E-05,0,
00:00:03.004,-1.00016586657148E-05,0,
00:00:03.008,3.7709758089477E-06,0,
00:00:03.012,1.02060339486343E-05,0,
00:00:03.016,9.58551754592918E-06,0,
00:00:03.02,5.10518657392822E-06,0,
00:00:03.024,2.92014618707981E-07,0,
00:00:03.028,0.0020731317345053,0,
00:00:03.032,-0.00405433308333158,0,
00:00:03.036,0.000331096234731376,0,
00:00:03.04,0.00146437145303935,0,
00:00:03.044,0.0010203190613538,0,
00:00:03.048,0.000185898286872543,0,
00:00:03.052,-0.000396231975173578,0,
00:00:03.056,-0.000548515468835831,0,
00:00:03.06,-0.000382704049116001,0,
00:00:03.064,-0.000108188069134485,0,
00:00:03.068,0.00218202266842127,0,
00:00:03.072,-0.00386143056675792,0,
00:00:03.076,0.000491870567202568,0,
00:00:03.08,0.00361368153244257,0,
00:00:03.084,-0.00303968135267496,0,
00:00:03.088,0.000465919758426026,0,
00:00:03.092,0.00101242901291698,0,
00:00:03.096,-0.00163849047385156,0,
00:00:03.1,0.00384698854759336,0,
00:00:03.104,-0.000825966650154442,0,
00:00:03.108,-0.00188945303671062,0,
00:00:03.112,-0.00119907699991018,0,
00:00:03.116,-0.000129059248138219,0,
00:00:03.12,0.00265023880638182,0,
00:00:03.124,-0.00332608609460294,0,
00:00:03.128,0.000817284046206623,0,
00:00:03.132,0.00158758612815291,0,
00:00:03.136,0.00087107322178781,0,
00:00:03.14,0.0020135457161814,0,
00:00:03.144,-0.00257256277836859,0,
00:00:03.148,-0.00227829674258828,0,
00:00:03.152,-0.000543746864423156,0,
00:00:03.156,0.000804304727353156,0,
00:00:03.16,0.00120512535795569,0,
00:00:03.164,0.000861774256918579,0,
00:00:03.168,-0.0018291873857379,0,
00:00:03.172,0.00380604504607618,0,
00:00:03.176,0.00130195019301027,0,
00:00:03.18,-0.00588771980255842,0,
00:00:03.184,-0.000860519125126302,0,
00:00:03.188,0.0012956311693415,0,
00:00:03.192,0.00361218675971031,0,
00:00:03.196,-0.00111243524588645,0,
00:00:03.2,-0.0015771733596921,0,
00:00:03.204,-0.000601876876316965,0,
00:00:03.208,-0.00174991530366242,0,
00:00:03.212,0.00473957322537899,0,
00:00:03.216,0.000213557970710099,0,
00:00:03.22,-0.0012786554871127,0,
00:00:03.224,-0.00114943773951381,0,
00:00:03.228,-0.000456507026683539,0,
00:00:03.232,-0.00192246166989207,0,
00:00:03.236,0.00447495561093092,0,
00:00:03.24,4.67287973151542E-05,0,
00:00:03.244,0.00078861165093258,0,
00:00:03.248,-0.00509504089131951,0,
00:00:03.252,1.28672163555166E-05,0,
00:00:03.256,0.00171809876337647,0,
00:00:03.26,0.00355679751373827,0,
00:00:03.264,-0.00350077706389129,0,
00:00:03.268,0.00215124152600765,0,
00:00:03.272,-0.00111944577656686,0,
00:00:03.276,-0.00115958310198039,0,
00:00:03.28,-0.00232086260803044,0,
00:00:03.284,0.00244982377626002,0,
00:00:03.288,0.00230550416745245,0,
00:00:03.292,0.000623071333393455,0,
00:00:03.296,-0.000747495272662491,0,
00:00:03.3,0.000878374790772796,0,
00:00:03.304,-0.00494321016594768,0,
00:00:03.308,4.43382996309083E-05,0,
00:00:03.312,0.00375352264381945,0,
00:00:03.316,-0.000527955184224993,0,
00:00:03.32,-0.00108168774750084,0,
00:00:03.324,-0.000388055632356554,0,
00:00:03.328,0.000289986113784835,0,
00:00:03.332,-0.00154389289673418,0,
00:00:03.336,0.00444533256813884,0,
00:00:03.34,-0.0023031469900161,0,
00:00:03.344,0.000379165867343545,0,
00:00:03.348,0.000396972027374431,0,
00:00:03.352,-0.000196845838217996,0,
00:00:03.356,0.00154137925710529,0,
00:00:03.36,-0.00244676065631211,0,
00:00:03.364,-0.00182977644726634,0,
00:00:03.368,0.00199026172049344,0,
00:00:03.372,-0.000897855148650706,0,
00:00:03.376,-0.00246273702941835,0,
00:00:03.38,0.00255876546725631,0,
00:00:03.384,0.00258525949902833,0,
00:00:03.388,0.000850001291837543,0,
00:00:03.392,-0.000693980313371867,0,
00:00:03.396,-0.00130119547247887,0,
00:00:03.4,-0.00106255314312875,0,
00:00:03.404,-0.000434932124335319,0,
00:00:03.408,0.000139358846354298,0,
00:00:03.412,0.000426471931859851,0,
00:00:03.416,0.000416523340390995,0,
00:00:03.42,-0.00184173358138651,0,
00:00:03.424,0.00407871324568987,0,
00:00:03.428,-0.000438038696302101,0,
00:00:03.432,-0.00160216679796577,0,
00:00:03.436,-0.00111700757406652,0,
00:00:03.44,-0.000217051696381532,0,
00:00:03.444,0.000416762748500332,0,
00:00:03.448,0.000590440526138991,0,
00:00:03.452,0.000419126154156402,0,
00:00:03.456,0.000125744380056858,0,
00:00:03.46,-0.000107261694211047,0,
00:00:03.464,-0.000201117087271996,0,
00:00:03.468,-0.000171217558090575,0,
00:00:03.472,-8.07905962574296E-05,0,
00:00:03.476,6.61725061945617E-06,0,
00:00:03.48,5.48694697499741E-05,0,
00:00:03.484,5.953904837952E-05,0,
00:00:03.488,3.67178472515661E-05,0,
00:00:03.492,7.61519549996592E-06,0,
00:00:03.496,0.00206311303190887,0,
00:00:03.5,-0.0040701855905354,0,
00:00:03.504,0.000318642822094262,0,
00:00:03.508,0.00145925616379827,0,
00:00:03.512,0.00102169264573604,0,
00:00:03.516,0.000190476901479997,0,
00:00:03.52,-0.000391745736123994,0,
00:00:03.524,0.00152976985555142,0,
00:00:03.528,-0.00443353597074747,0,
00:00:03.532,-0.00185184122528881,0,
00:00:03.536,0.00562085956335068,0,
00:00:03.54,0.000875118945259601,0,
00:00:03.544,-0.00112185394391418,0,
00:00:03.548,-0.00134372408501804,0,
00:00:03.552,-0.000741693773306906,0,
00:00:03.556,-3.74497685697861E-05,0,
00:00:03.56,0.000385672086849809,0,
00:00:03.564,0.000455594883533195,0,
00:00:03.568,0.000291277508949861,0,
00:00:03.572,0.00214002002030611,0,
00:00:03.576,-0.00207451428286731,0,
00:00:03.58,-0.00387140922248363,0,
00:00:03.584,0.00375405722297728,0,
00:00:03.588,0.000460436334833503,0,
00:00:03.592,-0.00249964604154229,0,
00:00:03.596,0.00370616721920669,0,
00:00:03.6,-0.00246902601793408,0,
00:00:03.604,0.0027062795124948,0,
00:00:03.608,-0.00328628462739289,0,
00:00:03.612,0.000394568080082536,0,
00:00:03.616,0.00100036826916039,0,
00:00:03.62,0.000470533967018127,0,
00:00:03.624,0.00193862162996083,0,
00:00:03.628,-0.00239212857559323,0,
00:00:03.632,-0.00408255495131016,0,
00:00:03.636,0.00164955807849765,0,
00:00:03.64,0.00254382216371596,0,
00:00:03.644,0.00344482273794711,0,
00:00:03.648,-0.00202788366004825,0,
00:00:03.652,-0.00249801878817379,0,
00:00:03.656,-0.00109738728497177,0,
00:00:03.66,0.000312618707539514,0,
00:00:03.664,0.000974002119619399,0,
00:00:03.668,0.00296544563025236,0,
00:00:03.672,-0.00155772897414863,0,
00:00:03.676,-0.00170428748242557,0,
00:00:03.68,-0.000505804899148643,0,
00:00:03.684,0.000493522675242275,0,
00:00:03.688,0.00288991397246718,0,
00:00:03.692,-0.00138795806560665,0,
00:00:03.696,-0.00356137217022479,0,
00:00:03.7,0.00160898128524423,0,
00:00:03.704,0.00216123415157199,0,
00:00:03.708,0.000935649499297142,0,
00:00:03.712,-0.000336055032676086,0,
00:00:03.716,-0.000932475028093904,0,
00:00:03.72,-0.00084363913629204,0,
00:00:03.724,-0.00039683684008196,0,
00:00:03.728,5.55700062250253E-05,0,
00:00:03.732,0.000307409703964368,0,
00:00:03.736,0.000327938469126821,0,
00:00:03.74,0.00227708066813648,0,
00:00:03.744,-0.0040095392614603,0,
00:00:03.748,0.000263776571955532,0,
00:00:03.752,0.00136040744837373,0,
00:00:03.756,0.00301532004959881,0,
00:00:03.76,-0.00182198395486921,0,
00:00:03.764,-0.00410445360466838,0,
00:00:03.768,0.00127988925669342,0,
00:00:03.772,0.00420703087002039,0,
00:00:03.776,-0.000862749817315489,0,
00:00:03.78,-0.0017464478733018,0,
00:00:03.784,-0.000940982135944068,0,
00:00:03.788,6.00448147451971E-05,0,
00:00:03.792,0.00267897988669574,0,
00:00:03.796,-0.00343238934874535,0,
00:00:03.8,0.000660574296489358,0,
00:00:03.804,0.00145995756611228,0,
00:00:03.808,0.0028870846144855,0,
00:00:03.812,-0.00203354004770517,0,
00:00:03.816,-0.00220020022243261,0,
00:00:03.82,-0.000770591956097633,0,
00:00:03.824,0.000502524257171899,0,
00:00:03.828,0.000994886737316847,0,
00:00:03.832,0.000799160916358233,0,
00:00:03.836,0.000299296312732622,0,
00:00:03.84,-0.000146539634442888,0,
00:00:03.844,-0.000357122655259445,0,
00:00:03.848,-0.000332686293404549,0,
00:00:03.852,0.00189798045903444,0,
00:00:03.856,-0.00198691990226507,0,
00:00:03.86,-0.00155161146540195,0,
00:00:03.864,-6.57480268273503E-05,0,
00:00:03.868,-0.00115729519166052,0,
00:00:03.872,0.00302543211728334,0,
00:00:03.876,0.00433008372783661,0,
00:00:03.88,-0.00175089237745851,0,
00:00:03.884,-0.00489043304696679,0,
00:00:03.888,0.000348429544828832,0,
00:00:03.892,0.00362913473509252,0,
00:00:03.896,-0.00303108291700482,0,
00:00:03.9,0.000478336645755917,0,
00:00:03.904,0.00105300708673894,0,
00:00:03.908,0.000502233044244349,0,
00:00:03.912,-0.000137236856971867,0,
00:00:03.916,-0.000445193785708398,0,
00:00:03.92,-0.000404865306336433,0,
00:00:03.924,-0.00018288656428922,0,
00:00:03.928,0.00211656535975635,0,
00:00:03.932,-0.0038888796698302,0,
00:00:03.936,0.000500673253554851,0,
00:00:03.94,0.00156510819215328,0,
00:00:03.944,0.0010380808962509,0,
00:00:03.948,0.00014764306251891,0,
00:00:03.952,-0.000450816994998604,0,
00:00:03.956,-0.000589236675295979,0,
00:00:03.96,-0.000397854542825371,0,
00:00:03.964,-0.000101894613180775,0,
00:00:03.968,0.000122363955597393,0,
00:00:03.972,0.00228039151988924,0,
00:00:03.976,-0.00180890201590955,0,
00:00:03.98,-0.00364461890421808,0,
00:00:03.984,-0.000290072523057461,0,
00:00:03.988,0.00647856341674924,0,
00:00:03.992,0.00288829021155834,0,
00:00:03.996,-0.00576280476525426,0,
00:00:04,-0.00163792830426246,0,
00:00:04.004,-0.00171336031053215,0,
00:00:04.008,0.00292081292718649,0,
00:00:04.012,0.00238855089992285,0,
00:00:04.016,0.000464046112028882,0,
00:00:04.02,0.00113810820039362,0,
00:00:04.024,-0.00326643511652946,0,
00:00:04.028,-0.00458697928115726,0,
00:00:04.032,0.00160108401905745,0,
00:00:04.036,0.00487066898494959,0,
00:00:04.04,-0.00235804938711226,0,
00:00:04.044,0.00258628372102976,0,
00:00:04.048,-0.00128953298553824,0,
00:00:04.052,-0.00366391916759312,0,
00:00:04.056,0.00343135162256658,0,
00:00:04.06,-0.00210308842360973,0,
00:00:04.064,0.00120569905266166,0,
00:00:04.068,0.00328314094804227,0,
00:00:04.072,-0.00174441316630691,0,
00:00:04.076,-0.00217242632061243,0,
00:00:04.08,-0.00297861825674772,0,
00:00:04.084,0.00232987175695598,0,
00:00:04.088,0.00463682692497969,0,
00:00:04.092,-0.000989154796116054,0,
00:00:04.096,-0.00212367041967809,0,
00:00:04.1,-0.00128284457605332,0,
00:00:04.104,-0.000100961653515697,0,
00:00:04.108,0.000624523381702602,0,
00:00:04.112,0.000741117750294507,0,
00:00:04.116,0.000457793154055253,0,
00:00:04.12,7.47079247958027E-05,0,
00:00:04.124,-0.000192483043065295,0,
00:00:04.128,-0.000271272525424138,0,
00:00:04.132,-0.000202988812816329,0,
00:00:04.136,-0.00215239962562919,0,
00:00:04.14,0.00408110907301307,0,
00:00:04.144,-0.000253802281804383,0,
00:00:04.148,-0.00139069033320993,0,
00:00:04.152,-0.00305614108219743,0,
00:00:04.156,0.00179252121597528,0,
00:00:04.16,0.00409427797421813,0,
00:00:04.164,-0.00127442181110382,0,
00:00:04.168,-0.00419476674869657,0,
00:00:04.172,0.000873718818183988,0,
00:00:04.176,0.00175194721668959,0,
00:00:04.18,0.00301670026965439,0,
00:00:04.184,-0.00203865510411561,0,
00:00:04.188,-0.00224900478497148,0,
00:00:04.192,-0.000798175111413002,0,
00:00:04.196,0.000514840590767562,0,
00:00:04.2,-0.00104237557388842,0,
00:00:04.204,0.00489132339134812,0,
00:00:04.208,0.0020682318136096,0,
00:00:04.212,-0.00357982562854886,0,
00:00:04.216,-0.00510192895308137,0,
00:00:04.22,0.00334402080625296,0,
00:00:04.224,0.000718510244041681,0,
00:00:04.228,9.53833878156729E-05,0,
00:00:04.232,8.45823888084851E-05,0,
00:00:04.236,-0.00195634947158396,0,
00:00:04.24,0.00204419856891036,0,
00:00:04.244,0.00161678355652839,0,
00:00:04.248,8.07514734333381E-05,0,
00:00:04.252,-0.00303106172941625,0,
00:00:04.256,0.00294143590144813,0,
00:00:04.26,0.0010791732929647,0,
00:00:04.264,-0.00558917922899127,0,
00:00:04.268,-0.000356923759682104,0,
00:00:04.272,0.00171688827686012,0,
00:00:04.276,0.00381049863062799,0,
00:00:04.28,-0.00112735840957612,0,
00:00:04.284,-0.0017096953233704,0,
00:00:04.288,-0.000746153120417148,0,
00:00:04.292,0.000236616673646495,0,
00:00:04.296,-0.00140612421091646,0,
00:00:04.3,0.00462833885103464,0,
00:00:04.304,-0.000100841723906342,0,
00:00:04.308,-0.00155921804253012,0,
00:00:04.312,-0.00335316872224212,0,
00:00:04.316,0.00154210592154413,0,
00:00:04.32,0.00397638510912657,0,
00:00:04.324,-0.00126491603441536,0,
00:00:04.328,-0.00411498406901956,0,
00:00:04.332,0.000960368546657264,0,
00:00:04.336,0.00180545938201249,0,
00:00:04.34,0.003027897560969,0,
00:00:04.344,-0.00413276441395283,0,
00:00:04.348,0.0017743892967701,0,
00:00:04.352,-0.0011527391616255,0,
00:00:04.356,-0.000958546297624707,0,
00:00:04.36,-0.00205938424915075,0,
00:00:04.364,0.00263874209485948,0,
00:00:04.368,0.00444835983216763,0,
00:00:04.372,-0.00138468225486577,0,
00:00:04.376,-0.00454190373420715,0,
00:00:04.38,0.000531338853761554,0,
00:00:04.384,0.00155707122758031,0,
00:00:04.388,0.00299101346172392,0,
00:00:04.392,-0.00403031287714839,0,
00:00:04.396,-0.000161450996529311,0,
00:00:04.4,0.0030001699924469,0,
00:00:04.404,-0.00333178555592895,0,
00:00:04.408,0.00258436542935669,0,
00:00:04.412,-0.000731510459445417,0,
00:00:04.416,-0.0051086968742311,0,
00:00:04.42,0.00579817919060588,0,
00:00:04.424,0.00169139273930341,0,
00:00:04.428,-0.000736386806238443,0,
00:00:04.432,-0.0014899296220392,0,
00:00:04.436,-0.00113579269964248,0,
00:00:04.44,0.00169445679057389,0,
00:00:04.444,-0.00173334905412048,0,
00:00:04.448,-0.00113656488247216,0,
00:00:04.452,0.000263916765106842,0,
00:00:04.456,0.00105454574804753,0,
00:00:04.46,0.00101300294045359,0,
00:00:04.464,-0.00158683455083519,0,
00:00:04.468,0.0019015078432858,0,
00:00:04.472,0.00331983948126435,0,
00:00:04.476,-0.00222838344052434,0,
00:00:04.48,-0.00690649123862386,0,
00:00:04.484,0.00683462573215365,0,
00:00:04.488,0.00170597597025335,0,
00:00:04.492,-0.00382498442195356,0,
00:00:04.496,-0.0047199847176671,0,
00:00:04.5,0.00196280400268734,0,
00:00:04.504,0.00326899369247258,0,
00:00:04.508,0.00404325779527426,0,
00:00:04.512,-0.00388440978713334,0,
00:00:04.516,-0.000649611931294203,0,
00:00:04.52,0.00232939212583005,0,
00:00:04.524,-0.00175533548463136,0,
00:00:04.528,-0.00165530247613788,0,
00:00:04.532,-0.000325390486977994,0,
00:00:04.536,0.000702003540936857,0,
00:00:04.54,0.000973249028902501,0,
00:00:04.544,0.000664031249471009,0,
00:00:04.548,0.000159805422299542,0,
00:00:04.552,-0.000226589909289032,0,
00:00:04.556,-0.000367066502803937,0,
00:00:04.56,-0.00029696908313781,0,
00:00:04.564,-0.000130588465253823,0,
00:00:04.568,2.20866386371199E-05,0,
00:00:04.572,0.00217751320451498,0,
00:00:04.576,-0.00187068397644907,0,
00:00:04.58,-0.00158059550449252,0,
00:00:04.584,-0.002242979593575,0,
00:00:04.588,0.00486929528415203,0,
00:00:04.592,0.000660260498989373,0,
00:00:04.596,-0.00293524796143174,0,
00:00:04.6,0.0010282431030646,0,
00:00:04.604,0.00116042816080153,0,
00:00:04.608,0.00017539257532917,0,
00:00:04.612,-0.000586932641454041,0,
00:00:04.616,-0.000752739841118455,0,
00:00:04.62,-0.00047647618339397,0,
00:00:04.624,-7.19613817636855E-05,0,
00:00:04.628,0.000218475601286627,0,
00:00:04.632,0.000306369067402557,0,
00:00:04.636,0.000231616897508502,0,
00:00:04.64,9.05967099242844E-05,0,
00:00:04.644,-0.00210584443993866,0,
00:00:04.648,0.00396354217082262,0,
00:00:04.652,-0.00041687794146128,0,
00:00:04.656,-0.00151043361984193,0,
00:00:04.66,-0.00102341151796281,0,
00:00:04.664,-0.000162560056196526,0,
00:00:04.668,0.000424988626036793,0,
00:00:04.672,0.000568082206882536,0,
00:00:04.676,0.000388488784665242,0,
00:00:04.68,0.000103427009889856,0,
00:00:04.684,-0.000115126298624091,0,
00:00:04.688,-0.000197150817257352,0,
00:00:04.692,0.00191374425776303,0,
00:00:04.696,-0.00204782490618527,0,
00:00:04.7,-0.00370700052008033,0,
00:00:04.704,0.00392894493415952,0,
00:00:04.708,0.000566548260394484,0,
00:00:04.712,-0.000403486570576206,0,
00:00:04.716,-0.00038343618507497,0,
00:00:04.72,-0.000116369126772042,0,
00:00:04.724,7.752982492093E-05,0,
00:00:04.728,0.00012625427916646,0,
00:00:04.732,-0.00200051558203995,0,
00:00:04.736,0.00197294680401683,0,
00:00:04.74,0.00366291264072061,0,
00:00:04.744,-0.00186412187758833,0,
00:00:04.748,-0.00460605649277568,0,
00:00:04.752,0.000756060006096959,0,
00:00:04.756,0.00393962068483233,0,
00:00:04.76,-0.000832655234262347,0,
00:00:04.764,-0.00153610401321203,0,
00:00:04.768,-0.00278157670982182,0,
00:00:04.772,0.00426425179466605,0,
00:00:04.776,0.000310995965264738,0,
00:00:04.78,-0.00296359765343368,0,
00:00:04.784,0.0012109549716115,0,
00:00:04.788,0.00139330211095512,0,
00:00:04.792,0.00241548381745815,0,
00:00:04.796,-0.00458367075771093,0,
00:00:04.8,-0.000452576030511409,0,
00:00:04.804,0.000918465200811625,0,
00:00:04.808,0.000886187481228262,0,
00:00:04.812,-0.0017026667483151,0,
00:00:04.816,0.00188567792065442,0,
00:00:04.82,0.00134366529528052,0,
00:00:04.824,0.00198197411373258,0,
00:00:04.828,-0.00501835951581597,0,
00:00:04.832,0.00140353571623564,0,
00:00:04.836,-0.00103888008743525,0,
00:00:04.84,-0.000597482372540981,0,
00:00:04.844,0.000372738402802497,0,
00:00:04.848,0.000866270100232214,0,
00:00:04.852,0.000757265428546816,0,
00:00:04.856,0.000326017179759219,0,
00:00:04.86,-9.8186697869096E-05,0,
00:00:04.864,-0.000323135231155902,0,
00:00:04.868,-0.000325698085362092,0,
00:00:04.872,-0.000191767874639481,0,
00:00:04.876,-3.28549358528107E-05,0,
00:00:04.88,7.36069123377092E-05,0,
00:00:04.884,0.000104129074316006,0,
00:00:04.888,7.72744315327145E-05,0,
00:00:04.892,-0.00204735551960766,0,
00:00:04.896,0.00196300609968603,0,
00:00:04.9,0.00161121343262494,0,
00:00:04.904,0.00014863621618133,0,
00:00:04.908,0.00121826771646738,0,
00:00:04.912,-0.000927634711842984,0,
00:00:04.916,-0.00631559733301401,0,
00:00:04.92,8.421470556641E-05,0,
00:00:04.924,0.00261512165889144,0,
00:00:04.928,0.00453383196145296,0,
00:00:04.932,-0.00293499929830432,0,
00:00:04.936,0.00012738085933961,0,
00:00:04.94,0.00264231744222343,0,
00:00:04.944,-0.00394291803240776,0,
00:00:04.948,-2.405473651379E-06,0,
00:00:04.952,0.00100464420393109,0,
00:00:04.956,0.00278085959143937,0,
00:00:04.96,-0.00186405645217746,0,
00:00:04.964,-0.00192634109407663,0,
00:00:04.968,-0.00262071122415364,0,
00:00:04.972,0.00465807784348726,0,
00:00:04.976,0.000651906011626124,0,
00:00:04.98,-0.000737587863113731,0,
00:00:04.984,-0.00287333875894547,0,
00:00:04.988,0.00159678421914577,0,
00:00:04.992,0.00374839780852199,0,
00:00:04.996,-0.00364116416312754,0,
00:00:05,-0.000279857486020774,0,
00:00:05.004,0.000552496872842312,0,
00:00:05.008,0.000380364886950701,0,
00:00:05.012,2.20560596062569E-05,0,
00:00:05.016,-0.00226200371980667,0,
00:00:05.02,0.00177809991873801,0,
00:00:05.024,0.0036239882465452,0,
00:00:05.028,-0.00177586625795811,0,
00:00:05.032,-0.00239582685753703,0,
00:00:05.036,-0.00111120264045894,0,
00:00:05.04,0.000269699667114764,0,
00:00:05.044,0.000958305026870221,0,
00:00:05.048,0.000912293035071343,0,
00:00:05.052,0.000461091782199219,0,
00:00:05.056,-2.14481933653587E-05,0,
00:00:05.06,-0.000305542314890772,0,
00:00:05.064,-0.00242150318808854,0,
00:00:05.068,0.00175238959491253,0,
00:00:05.072,0.00366167211905122,0,
00:00:05.076,-0.0017329822294414,0,
00:00:05.08,-0.00445228302851319,0,
00:00:05.084,0.000857590755913407,0,
00:00:05.088,0.00396714964881539,0,
00:00:05.092,-0.000860212545376271,0,
00:00:05.096,-0.00158406223636121,0,
00:00:05.1,-0.000745109166018665,0,
00:00:05.104,0.00019576346676331,0,
00:00:05.108,0.000647172040771693,0,
00:00:05.112,0.000590696814469993,0,
00:00:05.116,0.000269317912170663,0,
00:00:05.12,-5.56724771740846E-05,0,
00:00:05.124,-0.000233100334298797,0,
00:00:05.128,-0.00024200305051636,0,
00:00:05.132,-0.00222120131365955,0,
00:00:05.136,0.00194810377433896,0,
00:00:05.14,0.0058470256626606,0,
00:00:05.144,-0.00577174173668027,0,
00:00:05.148,-0.00209299195557833,0,
00:00:05.152,0.000282556895399466,0,
00:00:05.156,-0.00500391190871596,0,
00:00:05.16,0.0111855696886778,0,
00:00:05.164,0.00771592929959297,0,
00:00:05.168,-0.0108244000002742,0,
00:00:05.172,-0.00621498003602028,0,
00:00:05.176,-0.000684859813190997,0,
00:00:05.18,0.000558314728550613,0,
00:00:05.184,0.00519486982375383,0,
00:00:05.188,0.0057438206858933,0,
00:00:05.192,-0.00142675230745226,0,
00:00:05.196,-0.00328294513747096,0,
00:00:05.2,-0.0023626449983567,0,
00:00:05.204,-0.00274162739515305,0,
00:00:05.208,0.00258205784484744,0,
00:00:05.212,0.004770677536726,0,
00:00:05.216,-0.00719630951061845,0,
00:00:05.22,0.00376323377713561,0,
00:00:05.224,0.0139765134081244,0,
00:00:05.228,-0.0115456776693463,0,
00:00:05.232,-0.0164388138800859,0,
00:00:05.236,0.006334840785712,0,
00:00:05.24,0.00746943056583405,0,
00:00:05.244,0.00889712199568748,0,
00:00:05.248,0.00536169856786728,0,
00:00:05.252,-0.0128481909632683,0,
00:00:05.256,-0.0115333674475551,0,
00:00:05.26,0.00928969215601683,0,
00:00:05.264,0.0004510595172178,0,
00:00:05.268,-0.00691174482926726,0,
00:00:05.272,0.0104048503562808,0,
00:00:05.276,-0.0166458692401648,0,
00:00:05.28,0.0180756170302629,0,
00:00:05.284,0.0331440679728985,0,
00:00:05.288,-0.0254609473049641,0,
00:00:05.292,-0.0366657003760338,0,
00:00:05.296,-0.00465919729322195,0,
00:00:05.3,0.0337003916501999,0,
00:00:05.304,0.00245824293233454,0,
00:00:05.308,-0.00810788851231337,0,
00:00:05.312,-0.000380991754354909,0,
00:00:05.316,0.055229689925909,0,
00:00:05.32,-0.0464414320886135,0,
00:00:05.324,-0.0279439277946949,0,
00:00:05.328,-0.0654424279928207,0,
00:00:05.332,0.037791084498167,0,
00:00:05.336,0.148980513215065,0,
00:00:05.34,-0.0610508248209953,0,
00:00:05.344,0.0103049743920565,0,
00:00:05.348,-0.0475418083369732,0,
00:00:05.352,-0.144310623407364,0,
00:00:05.356,0.0654556304216385,0,
00:00:05.36,0.184871360659599,0,
00:00:05.364,-0.0249610431492329,0,
00:00:05.368,0.0148708783090115,0,
00:00:05.372,-0.115507401525974,0,
00:00:05.376,-0.129351198673248,0,
00:00:05.38,0.054034311324358,0,
00:00:05.384,0.12165929377079,0,
00:00:05.388,0.0117927026003599,0,
00:00:05.392,-0.0305862314999104,0,
00:00:05.396,0.0078550698235631,0,
00:00:05.4,-0.0547647662460804,0,
00:00:05.404,0.0720522403717041,0,
00:00:05.408,0.0531279481947422,0,
00:00:05.412,-0.123808346688747,0,
00:00:05.416,0.0442541278898716,0,
00:00:05.42,-0.0270320326089859,0,
00:00:05.424,-0.037321001291275,0,
00:00:05.428,0.0014348509721458,0,
00:00:05.432,0.0675316527485847,0,
00:00:05.436,0.0851376131176949,0,
00:00:05.44,-0.0498110204935074,0,
00:00:05.444,-0.199960023164749,0,
00:00:05.448,0.0740671455860138,0,
00:00:05.452,0.106555692851543,0,
00:00:05.456,0.0959413722157478,0,
00:00:05.46,0.00152585632167757,0,
00:00:05.464,0.0702562928199768,0,
00:00:05.468,-0.231698632240295,0,
00:00:05.472,-0.23765517771244,0,
00:00:05.476,-0.0260598156601191,0,
00:00:05.48,0.214545235037804,0,
00:00:05.484,0.244846537709236,0,
00:00:05.488,0.00728411925956607,0,
00:00:05.492,-0.0696104466915131,0,
00:00:05.496,-0.0881650894880295,0,
00:00:05.5,0.0248574167490005,0,
00:00:05.504,-0.0414010398089886,0,
00:00:05.508,-0.18002638220787,0,
00:00:05.512,0.166156470775604,0,
00:00:05.516,0.289601802825928,0,
00:00:05.52,-0.27997612953186,0,
00:00:05.524,-0.174755200743675,0,
00:00:05.528,0.173508822917938,0,
00:00:05.532,-0.0365948416292667,0,
00:00:05.536,-0.0190411824733019,0,
00:00:05.54,0.0958338305354118,0,
00:00:05.544,0.0532717034220696,0,
00:00:05.548,-0.0753878578543663,0,
00:00:05.552,-0.0131367584690452,0,
00:00:05.556,0.132698342204094,0,
00:00:05.56,-0.0336116626858711,0,
00:00:05.564,-0.199435606598854,0,
00:00:05.568,0.00803454499691725,0,
00:00:05.572,0.0929848328232765,0,
00:00:05.576,0.0302787069231272,0,
00:00:05.58,-0.00611049961298704,0,
00:00:05.584,0.0137923574075103,0,
00:00:05.588,-0.11926057189703,0,
00:00:05.592,-0.0439004153013229,0,
00:00:05.596,0.236809238791466,0,
00:00:05.6,-0.0356867089867592,0,
00:00:05.604,-0.0878321453928947,0,
00:00:05.608,0.245020404458046,0,
00:00:05.612,-0.263115376234055,0,
00:00:05.616,-0.103556253015995,0,
00:00:05.62,-0.00374754192307591,0,
00:00:05.624,0.102674789726734,0,
00:00:05.628,0.0193094164133072,0,
00:00:05.632,0.128928110003471,0,
00:00:05.636,0.0270561631768942,0,
00:00:05.64,-0.141008257865906,0,
00:00:05.644,-0.0721982643008232,0,
00:00:05.648,0.0973269119858742,0,
00:00:05.652,-0.0202702954411507,0,
00:00:05.656,0.0236064437776804,0,
00:00:05.66,-0.0383053235709667,0,
00:00:05.664,0.110929466784,0,
00:00:05.668,-0.0651018917560577,0,
00:00:05.672,-0.183922648429871,0,
00:00:05.676,0.0861666053533554,0,
00:00:05.68,-0.0277256332337856,0,
00:00:05.684,0.16603995859623,0,
00:00:05.688,0.0801180675625801,0,
00:00:05.692,-0.133221119642258,0,
00:00:05.696,-0.0689256489276886,0,
00:00:05.7,0.0163027700036764,0,
00:00:05.704,0.103675089776516,0,
00:00:05.708,-0.140503853559494,0,
00:00:05.712,0.153356745839119,0,
00:00:05.716,-0.0601065643131733,0,
00:00:05.72,-0.0849431976675987,0,
00:00:05.724,-0.0223613623529673,0,
00:00:05.728,0.138904243707657,0,
00:00:05.732,-0.00683543970808387,0,
00:00:05.736,-0.147446230053902,0,
00:00:05.74,0.210360959172249,0,
00:00:05.744,-0.0393924973905087,0,
00:00:05.748,-0.0781844183802605,0,
00:00:05.752,-0.0904095768928528,0,
00:00:05.756,0.00407067500054836,0,
00:00:05.76,0.160381630063057,0,
00:00:05.764,0.0135651249438524,0,
00:00:05.768,-0.0137969246134162,0,
00:00:05.772,-0.108885481953621,0,
00:00:05.776,-0.0420723743736744,0,
00:00:05.78,0.0104470355436206,0,
00:00:05.784,0.084009125828743,0,
00:00:05.788,0.0678367242217064,0,
00:00:05.792,0.00417123548686504,0,
00:00:05.796,-0.0790250822901726,0,
00:00:05.8,-0.0548890233039856,0,
00:00:05.804,0.0419742837548256,0,
00:00:05.808,-0.00608206493780017,0,
00:00:05.812,-0.00813950411975384,0,
00:00:05.816,0.0242202300578356,0,
00:00:05.82,0.110363833606243,0,
00:00:05.824,-0.0524433329701424,0,
00:00:05.828,-0.0955451875925064,0,
00:00:05.832,-0.0470978617668152,0,
00:00:05.836,0.0052501680329442,0,
00:00:05.84,0.104374065995216,0,
00:00:05.844,0.0304036810994148,0,
00:00:05.848,-0.00547819910570979,0,
00:00:05.852,-0.0671988949179649,0,
00:00:05.856,-0.0178777761757374,0,
00:00:05.86,0.0477185882627964,0,
00:00:05.864,0.00616351515054703,0,
00:00:05.868,-0.0347344316542149,0,
00:00:05.872,-0.00129502161871642,0,
00:00:05.876,0.0204198136925697,0,
00:00:05.88,0.0245268885046244,0,
00:00:05.884,0.0265713166445494,0,
00:00:05.888,-0.0680070146918297,0,
00:00:05.892,-0.0492709651589394,0,
00:00:05.896,0.139450371265411,0,
00:00:05.9,-0.0767883285880089,0,
00:00:05.904,-0.0451771356165409,0,
00:00:05.908,0.0316366963088512,0,
00:00:05.912,0.00936825480312109,0,
00:00:05.916,-0.0103447139263153,0,
00:00:05.92,-0.00774160213768482,0,
00:00:05.924,0.0976933687925339,0,
00:00:05.928,-0.0274421162903309,0,
00:00:05.932,-0.0560932718217373,0,
00:00:05.936,-0.0221883151680231,0,
00:00:05.94,-0.0532786548137665,0,
00:00:05.944,0.082426130771637,0,
00:00:05.948,0.117917262017727,0,
00:00:05.952,-0.0901887565851212,0,
00:00:05.956,0.00794087443500757,0,
00:00:05.96,-0.0745684653520584,0,
00:00:05.964,-0.045887790620327,0,
00:00:05.968,-0.00706855021417141,0,
00:00:05.972,0.126888960599899,0,
00:00:05.976,0.128532811999321,0,
00:00:05.98,-0.13804267346859,0,
00:00:05.984,-0.107915043830872,0,
00:00:05.988,0.0879918709397316,0,
00:00:05.992,0.0174241736531258,0,
00:00:05.996,-0.0535528212785721,0,
00:00:06,0.0035431613214314,0,
00:00:06.004,0.0581184439361095,0,
00:00:06.008,-0.0209310539066792,0,
00:00:06.012,-0.00931846536695957,0,
00:00:06.016,0.0623944737017155,0,
00:00:06.02,-0.0305911637842655,0,
00:00:06.024,-0.0824775323271751,0,
00:00:06.028,-0.0334962829947472,0,
00:00:06.032,0.0615193285048008,0,
00:00:06.036,0.0649300068616867,0,
00:00:06.04,0.00850030779838562,0,
00:00:06.044,-0.0350987128913403,0,
00:00:06.048,0.0381823554635048,0,
00:00:06.052,-0.0853022113442421,0,
00:00:06.056,0.0128193236887455,0,
00:00:06.06,-0.00216800952330232,0,
00:00:06.064,-0.00641303835436702,0,
00:00:06.068,0.0536351837217808,0,
00:00:06.072,-0.0145568270236254,0,
00:00:06.076,-0.00256084487773478,0,
00:00:06.08,0.0083296662196517,0,
00:00:06.084,-0.0381891913712025,0,
00:00:06.088,0.0391950570046902,0,
00:00:06.092,-0.0417969338595867,0,
00:00:06.096,0.0208706390112638,0,
00:00:06.1,0.0412609800696373,0,
00:00:06.104,-0.060286033898592,0,
00:00:06.108,-0.00743566313758492,0,
00:00:06.112,0.0692927092313766,0,
00:00:06.116,0.0220748391002417,0,
00:00:06.12,-0.0782080143690109,0,
00:00:06.124,-0.0190389230847359,0,
00:00:06.128,0.0114776734262705,0,
00:00:06.132,0.00485541298985481,0,
00:00:06.136,0.0111932000145316,0,
00:00:06.14,0.0441551357507706,0,
00:00:06.144,-0.0171391703188419,0,
00:00:06.148,-0.0398127138614655,0,
00:00:06.152,0.0225291550159454,0,
00:00:06.156,0.0649620890617371,0,
00:00:06.16,-0.0556394830346107,0,
00:00:06.164,-0.0322305336594582,0,
00:00:06.168,-0.0256989113986492,0,
00:00:06.172,0.0521930605173111,0,
00:00:06.176,-0.00895251799374819,0,
00:00:06.18,-0.0618297085165977,0,
00:00:06.184,0.110500246286392,0,
00:00:06.188,0.0834813490509987,0,
00:00:06.192,-0.137836009263992,0,
00:00:06.196,-0.0550381205976009,0,
00:00:06.2,0.00714856432750821,0,
00:00:06.204,0.0449131540954113,0,
00:00:06.208,0.0352380536496639,0,
00:00:06.212,0.0147565081715584,0,
00:00:06.216,-0.00670060375705361,0,
00:00:06.22,-0.0296252425760031,0,
00:00:06.224,-0.0289825331419706,0,
00:00:06.228,-0.00368717615492642,0,
00:00:06.232,0.0463627688586712,0,
00:00:06.236,0.0186350531876087,0,
00:00:06.24,-0.0379837714135647,0,
00:00:06.244,0.0367261916399002,0,
00:00:06.248,-0.0705207884311676,0,
00:00:06.252,0.0442633032798767,0,
00:00:06.256,0.0384095720946789,0,
00:00:06.26,-0.0773904249072075,0,
00:00:06.264,-0.048347283154726,0,
00:00:06.268,0.0926361754536629,0,
00:00:06.272,0.0575061589479446,0,
00:00:06.276,-0.0368673093616962,0,
00:00:06.28,-0.0382349975407124,0,
00:00:06.284,-0.0315922498703003,0,
00:00:06.288,0.00872817169874907,0,
00:00:06.292,0.0779881626367569,0,
00:00:06.296,-0.0379199236631393,0,
00:00:06.3,-0.0297302566468716,0,
00:00:06.304,0.012766738422215,0,
00:00:06.308,-0.0379111580550671,0,
00:00:06.312,0.0964416787028313,0,
00:00:06.316,-0.0508458092808723,0,
00:00:06.32,0.0169274676591158,0,
00:00:06.324,0.0115741295740008,0,
00:00:06.328,-0.0433454476296902,0,
00:00:06.332,0.0136234732344747,0,
00:00:06.336,-0.0307382754981518,0,
00:00:06.34,-0.013478615321219,0,
00:00:06.344,0.0391437597572804,0,
00:00:06.348,0.031418863683939,0,
00:00:06.352,0.0397355332970619,0,
00:00:06.356,-0.0686170309782028,0,
00:00:06.36,-0.0427782833576202,0,
00:00:06.364,0.0096583990380168,0,
00:00:06.368,0.0604093372821808,0,
00:00:06.372,0.0441535413265228,0,
00:00:06.376,-0.0636730268597603,0,
00:00:06.38,-0.0661165863275528,0,
00:00:06.384,0.0478717721998692,0,
00:00:06.388,0.0417273677885532,0,
00:00:06.392,-0.0356642715632916,0,
00:00:06.396,4.4682474253932E-05,0,
00:00:06.4,0.00909165013581514,0,
00:00:06.404,0.03288409486413,0,
00:00:06.408,-0.0380640998482704,0,
00:00:06.412,-0.00272962520830333,0,
00:00:06.416,0.00186444737482816,0,
00:00:06.42,-0.0252665709704161,0,
00:00:06.424,0.0348694697022438,0,
00:00:06.428,0.0159913189709187,0,
00:00:06.432,-0.0141166057437658,0,
00:00:06.436,-0.0256827995181084,0,
00:00:06.44,-0.0249154828488827,0,
00:00:06.444,0.0786001980304718,0,
00:00:06.448,0.0142913516610861,0,
00:00:06.452,-0.0402690134942532,0,
00:00:06.456,-0.0440276265144348,0,
00:00:06.46,0.0346316397190094,0,
00:00:06.464,0.00239507295191288,0,
00:00:06.468,-0.0236751548945904,0,
00:00:06.472,0.0484882332384586,0,
00:00:06.476,-0.0341242216527462,0,
00:00:06.48,-0.0285884365439415,0,
00:00:06.484,0.0432700105011463,0,
00:00:06.488,0.0459293313324451,0,
00:00:06.492,-0.0574581958353519,0,
00:00:06.496,-0.0110606150701642,0,
00:00:06.5,-0.00906271953135729,0,
00:00:06.504,0.010999271646142,0,
00:00:06.508,0.0256796311587095,0,
00:00:06.512,-0.00235175900161266,0,
00:00:06.516,0.0012773263733834,0,
00:00:06.52,-0.0263022147119045,0,
00:00:06.524,0.0236554685980082,0,
00:00:06.528,0.0193282645195723,0,
00:00:06.532,-0.0454822927713394,0,
00:00:06.536,-0.0548972450196743,0,
00:00:06.54,0.153539597988129,0,
00:00:06.544,-0.0252149309962988,0,
00:00:06.548,-0.0621106326580048,0,
00:00:06.552,-0.0551353916525841,0,
00:00:06.556,0.00302364164963365,0,
00:00:06.56,0.0354785248637199,0,
00:00:06.564,0.0466742254793644,0,
00:00:06.568,0.0191317033022642,0,
00:00:06.572,0.0117237223312259,0,
00:00:06.576,-0.0333440154790878,0,
00:00:06.58,-0.0520100705325603,0,
00:00:06.584,-0.0094098811969161,0,
00:00:06.588,-0.0154664115980268,0,
00:00:06.592,0.0718166902661324,0,
00:00:06.596,0.0360035635530949,0,
00:00:06.6,-0.038247175514698,0,
00:00:06.604,-0.038684356957674,0,
00:00:06.608,0.0369011610746384,0,
00:00:06.612,-0.0310594663023949,0,
00:00:06.616,0.0196234341710806,0,
00:00:06.62,0.023427801206708,0,
00:00:06.624,-0.0256172344088554,0,
00:00:06.628,-0.0325877331197262,0,
00:00:06.632,0.064676471054554,0,
00:00:06.636,-0.0299012344330549,0,
00:00:06.64,-0.0177499782294035,0,
00:00:06.644,-0.0260281022638083,0,
00:00:06.648,0.0325702354311943,0,
00:00:06.652,0.0756430998444557,0,
00:00:06.656,0.0146580599248409,0,
00:00:06.66,-0.111517935991287,0,
00:00:06.664,0.0111970817670226,0,
00:00:06.668,-0.0234086457639933,0,
00:00:06.672,-0.012454466894269,0,
00:00:06.676,0.0555783100426197,0,
00:00:06.68,0.0526453144848347,0,
00:00:06.684,-0.00118734315037727,0,
00:00:06.688,-0.0646457299590111,0,
00:00:06.692,-0.0071014161221683,0,
00:00:06.696,0.036458071321249,0,
00:00:06.7,-0.0270144250243902,0,
00:00:06.704,-0.0261179078370333,0,
00:00:06.708,0.0360952690243721,0,
00:00:06.712,0.0379811264574528,0,
00:00:06.716,-0.0283914003521204,0,
00:00:06.72,0.0364216305315495,0,
00:00:06.724,-0.04118587449193,0,
00:00:06.728,-0.0603422746062279,0,
00:00:06.732,-0.00720979645848274,0,
00:00:06.736,0.0219834856688976,0,
00:00:06.74,0.130686849355698,0,
00:00:06.744,0.0157087501138449,0,
00:00:06.748,-0.0928076356649399,0,
00:00:06.752,-0.0864665508270264,0,
00:00:06.756,0.0200330428779125,0,
00:00:06.76,0.03426918014884,0,
00:00:06.764,0.0380639471113682,0,
00:00:06.768,0.0190805662423372,0,
00:00:06.772,-0.0400579646229744,0,
00:00:06.776,0.0243169944733381,0,
00:00:06.78,-0.0055711455643177,0,
00:00:06.784,-0.0402353852987289,0,
00:00:06.788,0.00196306826546788,0,
00:00:06.792,0.0207462105900049,0,
00:00:06.796,0.00813272036612034,0,
00:00:06.8,0.0330260954797268,0,
00:00:06.804,-0.0953406915068626,0,
00:00:06.808,0.0235878378152847,0,
00:00:06.812,0.19263830780983,0,
00:00:06.816,-0.124265655875206,0,
00:00:06.82,-0.0926005244255066,0,
00:00:06.824,-0.0560561418533325,0,
00:00:06.828,0.0431443750858307,0,
00:00:06.832,0.0898619964718819,0,
00:00:06.836,0.0708675310015678,0,
00:00:06.84,-0.0560063123703003,0,
00:00:06.844,-0.0456898137927055,0,
00:00:06.848,0.0386468805372715,0,
00:00:06.852,-0.045522041618824,0,
00:00:06.856,-0.0288143698126078,0,
00:00:06.86,0.0154068097472191,0,
00:00:06.864,0.0605280548334122,0,
00:00:06.868,0.0147090014070272,0,
00:00:06.872,-0.0385155230760574,0,
00:00:06.876,-0.0046089799143374,0,
00:00:06.88,-0.0117689957842231,0,
00:00:06.884,-0.0186308603733778,0,
00:00:06.888,0.00573590816929936,0,
00:00:06.892,0.020855600014329,0,
00:00:06.896,0.0647955760359764,0,
00:00:06.9,-0.041972104460001,0,
00:00:06.904,-0.0485990345478058,0,
00:00:06.908,0.000796620966866612,0,
00:00:06.912,-5.09024866914842E-05,0,
00:00:06.916,0.0697186142206192,0,
00:00:06.92,0.00254750112071633,0,
00:00:06.924,-0.0216199737042189,0,
00:00:06.928,-0.0504669174551964,0,
00:00:06.932,-0.0188496578484774,0,
00:00:06.936,0.0163281168788671,0,
00:00:06.94,0.0356746204197407,0,
00:00:06.944,0.0141418166458607,0,
00:00:06.948,-0.0277064144611359,0,
00:00:06.952,0.00938823726028204,0,
00:00:06.956,0.0704002231359482,0,
00:00:06.96,-0.0460806228220463,0,
00:00:06.964,-0.0449211411178112,0,
00:00:06.968,-0.0238744225353003,0,
00:00:06.972,0.0113387731835246,0,
00:00:06.976,0.0152841070666909,0,
00:00:06.98,0.00181080144830048,0,
00:00:06.984,0.0249389372766018,0,
00:00:06.988,0.0872764140367508,0,
00:00:06.992,-0.079480953514576,0,
00:00:06.996,-0.0676391497254372,0,
00:00:07,0.0728397816419601,0,
00:00:07.004,-0.0427665039896965,0,
00:00:07.008,-0.0213491711765528,0,
00:00:07.012,0.0469644516706467,0,
00:00:07.016,-0.0279267076402903,0,
00:00:07.02,0.0175134278833866,0,
00:00:07.024,0.0459121540188789,0,
00:00:07.028,0.00884560402482748,0,
00:00:07.032,-0.0490604490041733,0,
00:00:07.036,-0.027123499661684,0,
00:00:07.04,-0.0120683368295431,0,
00:00:07.044,0.0438051372766495,0,
00:00:07.048,0.0141641236841679,0,
00:00:07.052,-0.0222488101571798,0,
00:00:07.056,-0.0254186727106571,0,
00:00:07.06,0.0523461885750294,0,
00:00:07.064,-0.0146882412955165,0,
00:00:07.068,-0.0375918559730053,0,
00:00:07.072,0.0192638877779245,0,
00:00:07.076,0.0280371457338333,0,
00:00:07.08,0.0525938235223293,0,
00:00:07.084,-0.0899449288845062,0,
00:00:07.088,-0.0396001487970352,0,
00:00:07.092,0.0223646741360426,0,
00:00:07.096,0.0663539245724678,0,
00:00:07.1,0.0361475721001625,0,
00:00:07.104,-0.0814976841211319,0,
00:00:07.108,-0.0433895215392113,0,
00:00:07.112,0.00811586901545525,0,
00:00:07.116,0.102739803493023,0,
00:00:07.12,-0.00207953597418964,0,
00:00:07.124,-0.0610254369676113,0,
00:00:07.128,-0.0356277674436569,0,
00:00:07.132,0.0387905351817608,0,
00:00:07.136,0.0228740647435188,0,
00:00:07.14,0.0531322099268436,0,
00:00:07.144,-0.0497825592756271,0,
00:00:07.148,-0.0853296518325806,0,
00:00:07.152,0.00943094119429588,0,
00:00:07.156,0.0308914426714182,0,
00:00:07.16,0.0645778104662895,0,
00:00:07.164,0.0151212215423584,0,
00:00:07.168,-0.0297471657395363,0,
00:00:07.172,-0.0360962003469467,0,
00:00:07.176,-0.0428087152540684,0,
00:00:07.18,0.0282538384199142,0,
00:00:07.184,0.0833326056599617,0,
00:00:07.188,-0.0200978424400091,0,
00:00:07.192,-0.0714192315936089,0,
00:00:07.196,-0.0228872429579496,0,
00:00:07.2,0.0953222066164017,0,
00:00:07.204,-0.0067956019192934,0,
00:00:07.208,-0.0360756814479828,0,
00:00:07.212,-0.0419053211808205,0,
00:00:07.216,-0.00197596685029566,0,
00:00:07.22,0.13298362493515,0,
00:00:07.224,-0.0239228121936321,0,
00:00:07.228,-0.0678502097725868,0,
00:00:07.232,-0.0425059236586094,0,
00:00:07.236,-0.00663604540750384,0,
00:00:07.24,0.0562706179916859,0,
00:00:07.244,0.0222074370831251,0,
00:00:07.248,-0.0120767578482628,0,
00:00:07.252,0.00417227251455188,0,
00:00:07.256,0.0199976973235607,0,
00:00:07.26,-0.0268378183245659,0,
00:00:07.264,-0.0309050399810076,0,
00:00:07.268,-0.00708174984902143,0,
00:00:07.272,0.0270850695669651,0,
00:00:07.276,0.00636106822639704,0,
00:00:07.28,-0.00718966126441956,0,
00:00:07.284,0.00813666172325611,0,
00:00:07.288,0.0396226085722446,0,
00:00:07.292,-0.0399237833917141,0,
00:00:07.296,-0.020820265635848,0,
00:00:07.3,-0.00768694141879678,0,
00:00:07.304,0.0110544376075268,0,
00:00:07.308,0.017465015873313,0,
00:00:07.312,0.0515822246670723,0,
00:00:07.316,-0.0455427467823029,0,
00:00:07.32,-0.0370060168206692,0,
00:00:07.324,0.0108489776030183,0,
00:00:07.328,-0.00809276849031448,0,
00:00:07.332,0.0255904123187065,0,
00:00:07.336,0.0267157945781946,0,
00:00:07.34,-0.00431982288137078,0,
00:00:07.344,-0.0307375099509954,0,
00:00:07.348,-0.00426015118137002,0,
00:00:07.352,0.00569921918213367,0,
00:00:07.356,-0.0101882247254252,0,
00:00:07.36,0.0212424751371145,0,
00:00:07.364,0.00502438610419631,0,
00:00:07.368,0.0537800081074238,0,
00:00:07.372,-0.0762519091367722,0,
00:00:07.376,-0.0174723044037819,0,
00:00:07.38,0.0132175916805863,0,
00:00:07.384,-0.015792366117239,0,
00:00:07.388,0.0102534182369709,0,
00:00:07.392,0.06480772793293,0,
00:00:07.396,-0.0143977543339133,0,
00:00:07.4,-0.0162809826433659,0,
00:00:07.404,0.00308585818856955,0,
00:00:07.408,-0.0353866666555405,0,
00:00:07.412,-0.008056933991611,0,
00:00:07.416,0.0158652290701866,0,
00:00:07.42,0.0213188901543617,0,
00:00:07.424,0.014880608767271,0,
00:00:07.428,0.000539511383976787,0,
00:00:07.432,-0.0303921736776829,0,
00:00:07.436,-0.0274278037250042,0,
00:00:07.44,0.00863443966954947,0,
00:00:07.444,0.0215182062238455,0,
00:00:07.448,0.00864066928625107,0,
00:00:07.452,0.0901484489440918,0,
00:00:07.456,-0.0854063183069229,0,
00:00:07.46,-0.0775802284479141,0,
00:00:07.464,0.0511768870055676,0,
00:00:07.468,0.0444737114012241,0,
00:00:07.472,-0.0443095304071903,0,
00:00:07.476,-0.0144752431660891,0,
00:00:07.48,0.0281221512705088,0,
00:00:07.484,0.0333607904613018,0,
00:00:07.488,0.00482246233150363,0,
00:00:07.492,-0.03803401440382,0,
00:00:07.496,-0.0187237970530987,0,
00:00:07.5,0.0123950699344277,0,
00:00:07.504,0.0107988407835364,0,
00:00:07.508,-0.0165780149400234,0,
00:00:07.512,0.0143625475466251,0,
00:00:07.516,0.041861217468977,0,
00:00:07.52,-0.038128923624754,0,
00:00:07.524,-0.00270440150052309,0,
00:00:07.528,-0.0103165274485946,0,
00:00:07.532,-0.0141332689672709,0,
00:00:07.536,0.0116371465846896,0,
00:00:07.54,0.0234699603170156,0,
00:00:07.544,-0.00173934653867036,0,
00:00:07.548,-0.0109137017279863,0,
00:00:07.552,-0.0168510787189007,0,
00:00:07.556,0.00811669882386923,0,
00:00:07.56,0.064261369407177,0,
00:00:07.564,-0.0237627513706684,0,
00:00:07.568,-0.0650512799620628,0,
00:00:07.572,0.00539418635889888,0,
00:00:07.576,0.029076961800456,0,
00:00:07.58,0.0226143356412649,0,
00:00:07.584,-0.0131258340552449,0,
00:00:07.588,-0.025739187374711,0,
00:00:07.592,-0.00430466281250119,0,
00:00:07.596,0.0336434915661812,0,
00:00:07.6,-0.00799248646944761,0,
00:00:07.604,-0.0222685988992453,0,
00:00:07.608,0.0271331164985895,0,
00:00:07.612,0.013257191516459,0,
00:00:07.616,-0.0246583521366119,0,
00:00:07.62,-0.000945850159041584,0,
00:00:07.624,-0.00161652325186878,0,
00:00:07.628,0.00230073602870107,0,
00:00:07.632,-0.00848495587706566,0,
00:00:07.636,7.52924534026533E-05,0,
00:00:07.64,0.0198705345392227,0,
00:00:07.644,0.00040961874765344,0,
00:00:07.648,-0.0034452888648957,0,
00:00:07.652,0.0118774054571986,0,
00:00:07.656,0.00969701819121838,0,
00:00:07.66,-0.0649596080183983,0,
00:00:07.664,-0.00417424784973264,0,
00:00:07.668,0.0423863977193832,0,
00:00:07.672,-0.0115620279684663,0,
00:00:07.676,0.0260085817426443,0,
00:00:07.68,0.00864767376333475,0,
00:00:07.684,-0.0136797484010458,0,
00:00:07.688,-0.0116971395909786,0,
00:00:07.692,-0.00372685957700014,0,
00:00:07.696,0.0228250306099653,0,
00:00:07.7,-0.0326118357479572,0,
00:00:07.704,0.00187562278006226,0,
00:00:07.708,0.00752792647108436,0,
00:00:07.712,-0.0227840915322304,0,
00:00:07.716,0.0261816829442978,0,
00:00:07.72,0.0451909564435482,0,
00:00:07.724,-0.0325924307107925,0,
00:00:07.728,-0.0102647291496396,0,
00:00:07.732,-0.00173865549732,0,
00:00:07.736,-0.0327146612107754,0,
00:00:07.74,0.0341631583869457,0,
00:00:07.744,0.00152595760300756,0,
00:00:07.748,0.0414588116109371,0,
00:00:07.752,-0.0238494295626879,0,
00:00:07.756,-0.0454847626388073,0,
00:00:07.76,-0.0211586877703667,0,
00:00:07.764,0.0246148835867643,0,
00:00:07.768,0.0527906268835068,0,
00:00:07.772,-0.00588706415146589,0,
00:00:07.776,-0.0311961360275745,0,
00:00:07.78,-0.00669198343530297,0,
00:00:07.784,0.0301152113825083,0,
00:00:07.788,0.0130151174962521,0,
00:00:07.792,-0.0506916157901287,0,
00:00:07.796,0.033638522028923,0,
00:00:07.8,-0.0390919633209705,0,
00:00:07.804,0.00133668875787407,0,
00:00:07.808,0.07659562677145,0,
00:00:07.812,-0.0611733123660088,0,
00:00:07.816,-0.015244273468852,0,
00:00:07.82,0.00212005386129022,0,
00:00:07.824,0.0574999786913395,0,
00:00:07.828,-1.07378027678351E-05,0,
00:00:07.832,-0.0524397268891335,0,
00:00:07.836,-0.0045645460486412,0,
00:00:07.84,0.0319097712635994,0,
00:00:07.844,0.0036802866961807,0,
00:00:07.848,-0.0209133289754391,0,
00:00:07.852,-0.00744227133691311,0,
00:00:07.856,0.00534462183713913,0,
00:00:07.86,0.0119584780186415,0,
00:00:07.864,0.00535544892773032,0,
00:00:07.868,0.0190163310617208,0,
00:00:07.872,-0.0203794613480568,0,
00:00:07.876,-0.0160317420959473,0,
00:00:07.88,-0.0226464085280895,0,
00:00:07.884,0.0248860735446215,0,
00:00:07.888,0.0558409094810486,0,
00:00:07.892,-0.0280143823474646,0,
00:00:07.896,-0.0319127775728703,0,
00:00:07.9,-0.0377075187861919,0,
00:00:07.904,0.0373708419501781,0,
00:00:07.908,0.02923265658319,0,
00:00:07.912,-0.00518971169367433,0,
00:00:07.916,0.00709896674379706,0,
00:00:07.92,-0.0555100552737713,0,
00:00:07.924,0.0645835697650909,0,
00:00:07.928,0.0414933189749718,0,
00:00:07.932,-0.0866256058216095,0,
00:00:07.936,-0.0361878275871277,0,
00:00:07.94,0.00559146143496037,0,
00:00:07.944,0.0339214578270912,0,
00:00:07.948,0.0173690263181925,0,
00:00:07.952,0.0237583927810192,0,
00:00:07.956,0.048709113150835,0,
00:00:07.96,-0.0552541874349117,0,
00:00:07.964,-0.0537418834865093,0,
00:00:07.968,-0.0106988335028291,0,
00:00:07.972,0.0253426786512136,0,
00:00:07.976,0.0160850863903761,0,
00:00:07.98,-0.00879426300525665,0,
00:00:07.984,0.0379477329552174,0,
00:00:07.988,0.03467683121562,0,
00:00:07.992,-0.0576775446534157,0,
00:00:07.996,-0.0536021739244461,0,
00:00:08,0.0040363515727222,0,
00:00:08.004,0.071826733648777,0,
00:00:08.008,0.0119398655369878,0,
00:00:08.012,-0.0477966032922268,0,
00:00:08.016,-0.0102581148967147,0,
00:00:08.02,0.00462906621396542,0,
00:00:08.024,0.0475270189344883,0,
00:00:08.028,-0.0374509058892727,0,
00:00:08.032,0.0150894438847899,0,
00:00:08.036,-0.0026140867266804,0,
00:00:08.04,-0.029267868027091,0,
00:00:08.044,0.00104040035512298,0,
00:00:08.048,0.0104883378371596,0,
00:00:08.052,0.0406033210456371,0,
00:00:08.056,0.0187037121504545,0,
00:00:08.06,-0.0678403526544571,0,
00:00:08.064,-0.0267798397690058,0,
00:00:08.068,0.0565459839999676,0,
00:00:08.072,0.00996987521648407,0,
00:00:08.076,-0.0313945226371288,0,
00:00:08.08,-0.00791538413614035,0,
00:00:08.084,0.0212051644921303,0,
00:00:08.088,0.0176073629409075,0,
00:00:08.092,-0.00504779350012541,0,
00:00:08.096,-0.0375894755125046,0,
00:00:08.1,0.00970821548253298,0,
00:00:08.104,0.0475616157054901,0,
00:00:08.108,-0.0426123887300491,0,
00:00:08.112,-0.0481715127825737,0,
00:00:08.116,0.102927096188068,0,
00:00:08.12,0.00463143782690167,0,
00:00:08.124,-0.0730854868888855,0,
00:00:08.128,-0.0215418003499508,0,
00:00:08.132,0.0203543808311224,0,
00:00:08.136,0.0339532122015953,0,
00:00:08.14,-0.00215517659671605,0,
00:00:08.144,-0.00251931347884238,0,
00:00:08.148,-0.0105175813660026,0,
00:00:08.152,0.016378415748477,0,
00:00:08.156,0.00556601956486702,0,
00:00:08.16,0.00447494303807616,0,
00:00:08.164,-0.0387793742120266,0,
00:00:08.168,-0.00867515057325363,0,
00:00:08.172,0.00245132157579064,0,
00:00:08.176,-0.00162963604088873,0,
00:00:08.18,0.0402844846248627,0,
00:00:08.184,0.015928041189909,0,
00:00:08.188,0.010803927667439,0,
00:00:08.192,-0.0501986220479012,0,
00:00:08.196,-0.0657483637332916,0,
00:00:08.2,0.0803761780261993,0,
00:00:08.204,0.0519889444112778,0,
00:00:08.208,-0.0593906305730343,0,
00:00:08.212,-0.031692735850811,0,
00:00:08.216,0.00813485216349363,0,
00:00:08.22,0.0196432936936617,0,
00:00:08.224,0.0207321830093861,0,
00:00:08.228,0.00229686172679067,0,
00:00:08.232,-0.019180865958333,0,
00:00:08.236,0.00125143188051879,0,
00:00:08.24,0.00166933960281312,0,
00:00:08.244,-0.0141957327723503,0,
00:00:08.248,0.00248858542181551,0,
00:00:08.252,0.0178540144115686,0,
00:00:08.256,-0.0146267572417855,0,
00:00:08.26,0.00947256665676832,0,
00:00:08.264,-0.0292736310511827,0,
00:00:08.268,0.0271134711802006,0,
00:00:08.272,0.0918074995279312,0,
00:00:08.276,-0.0977609604597092,0,
00:00:08.28,-0.0495126135647297,0,
00:00:08.284,0.0306532178074121,0,
00:00:08.288,0.0218087770044804,0,
00:00:08.292,-0.00443860748782754,0,
00:00:08.296,0.00615440402179956,0,
00:00:08.3,-0.0201610419899225,0,
00:00:08.304,0.0282051488757133,0,
00:00:08.308,0.0525646023452282,0,
00:00:08.312,-0.0189818367362022,0,
00:00:08.316,-0.0611526593565941,0,
00:00:08.32,-0.061192873865366,0,
00:00:08.324,0.063070684671402,0,
00:00:08.328,0.0574718378484249,0,
00:00:08.332,0.00325080705806613,0,
00:00:08.336,-0.0500880479812622,0,
00:00:08.34,-0.0304087214171886,0,
00:00:08.344,0.00418020691722631,0,
00:00:08.348,0.0311774425208569,0,
00:00:08.352,0.0638766661286354,0,
00:00:08.356,-0.041773546487093,0,
00:00:08.36,-0.0361430086195469,0,
00:00:08.364,-0.00934488512575626,0,
00:00:08.368,-0.00404985807836056,0,
00:00:08.372,0.0338795408606529,0,
00:00:08.376,0.00165287859272212,0,
00:00:08.38,0.024155642837286,0,
00:00:08.384,-0.0261593908071518,0,
00:00:08.388,0.0316076315939426,0,
00:00:08.392,-0.0469094812870026,0,
00:00:08.396,-0.0326480232179165,0,
00:00:08.4,0.0186360087245703,0,
00:00:08.404,0.0138472216203809,0,
00:00:08.408,0.030719056725502,0,
00:00:08.412,-0.00804735533893108,0,
00:00:08.416,-0.0148627487942576,0,
00:00:08.42,0.0107406945899129,0,
00:00:08.424,-0.0149367777630687,0,
00:00:08.428,0.0719019174575806,0,
00:00:08.432,-0.0307261627167463,0,
00:00:08.436,-0.092225044965744,0,
00:00:08.44,-0.0118230879306793,0,
00:00:08.444,0.0353270806372166,0,
00:00:08.448,0.0903740748763084,0,
00:00:08.452,-0.00989963300526142,0,
00:00:08.456,-0.0412861630320549,0,
00:00:08.46,-0.0355652309954166,0,
00:00:08.464,0.0354367345571518,0,
00:00:08.468,0.00952995009720325,0,
00:00:08.472,-0.0203939005732536,0,
00:00:08.476,-0.0186133980751038,0,
00:00:08.48,0.0188301261514425,0,
00:00:08.484,0.0431868322193623,0,
00:00:08.488,0.000388653803383932,0,
00:00:08.492,-0.0657118707895279,0,
00:00:08.496,-0.00437070429325104,0,
00:00:08.5,0.0340391881763935,0,
00:00:08.504,0.00555102340877056,0,
00:00:08.508,-0.00664920918643475,0,
00:00:08.512,-0.025695763528347,0,
00:00:08.516,0.0466551445424557,0,
00:00:08.52,0.00826232973486185,0,
00:00:08.524,0.00310023105703294,0,
00:00:08.528,-0.0250245127826929,0,
00:00:08.532,-0.064951978623867,0,
00:00:08.536,0.0160934589803219,0,
00:00:08.54,0.0724073499441147,0,
00:00:08.544,-0.00772727141156793,0,
00:00:08.548,-0.015950120985508,0,
00:00:08.552,-0.0261783581227064,0,
00:00:08.556,0.00583946891129017,0,
00:00:08.56,0.0155015056952834,0,
00:00:08.564,0.0192217249423265,0,
00:00:08.568,-0.0206003673374653,0,
00:00:08.572,-0.00604231795296073,0,
00:00:08.576,0.00535052921622992,0,
00:00:08.58,0.00966630969196558,0,
00:00:08.584,-0.033584788441658,0,
00:00:08.588,0.0138698164373636,0,
00:00:08.592,0.0784435793757439,0,
00:00:08.596,-0.0709298178553581,0,
00:00:08.6,-0.0399306602776051,0,
00:00:08.604,0.0212120246142149,0,
00:00:08.608,0.00549932708963752,0,
00:00:08.612,-0.0144182117655873,0,
00:00:08.616,0.0735267847776413,0,
00:00:08.62,0.0437511391937733,0,
00:00:08.624,-0.0744127556681633,0,
00:00:08.628,-0.0594101399183273,0,
00:00:08.632,-0.0182143431156874,0,
00:00:08.636,0.0309594608843327,0,
00:00:08.64,0.0934904590249062,0,
00:00:08.644,-0.0213999263942242,0,
00:00:08.648,-0.0420221202075481,0,
00:00:08.652,-0.0564695447683334,0,
00:00:08.656,0.0675944536924362,0,
00:00:08.66,0.0691743046045303,0,
00:00:08.664,-0.0712674632668495,0,
00:00:08.668,-0.0677589997649193,0,
00:00:08.672,0.0584438517689705,0,
00:00:08.676,0.0322618447244167,0,
00:00:08.68,-0.0436732582747936,0,
00:00:08.684,-0.00912115164101124,0,
00:00:08.688,-0.00788266211748123,0,
00:00:08.692,0.0888550132513046,0,
00:00:08.696,-0.0124354837462306,0,
00:00:08.7,-0.0508624948561192,0,
00:00:08.704,-0.0211001709103584,0,
00:00:08.708,0.0103438030928373,0,
00:00:08.712,0.0094361687079072,0,
00:00:08.716,-0.00538251781836152,0,
00:00:08.72,0.0488919280469418,0,
00:00:08.724,-0.0209168922156096,0,
00:00:08.728,-0.0138017786666751,0,
00:00:08.732,-0.0109809022396803,0,
00:00:08.736,-0.00327140488661826,0,
00:00:08.74,0.036615327000618,0,
00:00:08.744,-0.0482176095247269,0,
00:00:08.748,-0.00333338626660407,0,
00:00:08.752,0.125588953495026,0,
00:00:08.756,-0.0884449556469917,0,
00:00:08.76,-0.0662333220243454,0,
00:00:08.764,-0.0131478272378445,0,
00:00:08.768,0.0736643075942993,0,
00:00:08.772,0.0477492101490498,0,
00:00:08.776,-0.0207483358681202,0,
00:00:08.78,-0.01918089017272,0,
00:00:08.784,-0.0211582612246275,0,
00:00:08.788,-0.0118533484637737,0,
00:00:08.792,0.0169433634728193,0,
00:00:08.796,-0.00108266703318805,0,
00:00:08.8,-0.00254813651554286,0,
00:00:08.804,0.00536513514816761,0,
00:00:08.808,0.0375141613185406,0,
00:00:08.812,0.0194440390914679,0,
00:00:08.816,-0.047564122825861,0,
00:00:08.82,-0.065155953168869,0,
00:00:08.824,0.0246093217283487,0,
00:00:08.828,0.0206200946122408,0,
00:00:08.832,0.010317494161427,0,
00:00:08.836,0.0275978483259678,0,
00:00:08.84,0.00683071883395314,0,
00:00:08.844,0.0204147379845381,0,
00:00:08.848,-0.0273320842534304,0,
00:00:08.852,-0.0586634799838066,0,
00:00:08.856,-0.0236156042665243,0,
00:00:08.86,0.0231428518891335,0,
00:00:08.864,0.0299170184880495,0,
00:00:08.868,0.022435212507844,0,
00:00:08.872,-0.00868474692106247,0,
00:00:08.876,0.0110688796266913,0,
00:00:08.88,0.0668140575289726,0,
00:00:08.884,-0.0634884536266327,0,
00:00:08.888,-0.0813914388418198,0,
00:00:08.892,-0.00519658764824271,0,
00:00:08.896,0.0392712987959385,0,
00:00:08.9,0.0367661938071251,0,
00:00:08.904,0.00340670021250844,0,
00:00:08.908,-0.00441610068082809,0,
00:00:08.912,0.0020484016276896,0,
00:00:08.916,0.0246840491890907,0,
00:00:08.92,-0.00900846533477306,0,
00:00:08.924,-0.0555040203034878,0,
00:00:08.928,-0.0178608261048794,0,
00:00:08.932,0.00967433210462332,0,
00:00:08.936,-0.00406012032181025,0,
00:00:08.94,0.0709880068898201,0,
00:00:08.944,0.0777038931846619,0,
00:00:08.948,-0.086043506860733,0,
00:00:08.952,-0.0681631863117218,0,
00:00:08.956,-0.00858019292354584,0,
00:00:08.96,0.0241830386221409,0,
00:00:08.964,0.0440937578678131,0,
00:00:08.968,0.00652814516797662,0,
00:00:08.972,-0.0124991480261087,0,
00:00:08.976,-0.0104619162157178,0,
00:00:08.98,0.0174984410405159,0,
00:00:08.984,-0.0281794369220734,0,
00:00:08.988,0.00937385484576225,0,
00:00:08.992,0.0259733386337757,0,
00:00:08.996,-0.0361568406224251,0,
00:00:09,-0.0215971153229475,0,
00:00:09.004,-7.36430447432213E-05,0,
00:00:09.008,0.109628885984421,0,
00:00:09.012,-0.0406835488975048,0,
00:00:09.016,-0.0582783631980419,0,
00:00:09.02,-0.0084777195006609,0,
00:00:09.024,0.0125653948634863,0,
00:00:09.028,-0.00719217397272587,0,
00:00:09.032,0.0109085906296968,0,
00:00:09.036,0.135798111557961,0,
00:00:09.04,-0.0792541950941086,0,
00:00:09.044,-0.0833024233579636,0,
00:00:09.048,-0.0153354723006487,0,
00:00:09.052,0.0213606636971235,0,
00:00:09.056,0.00687792664393783,0,
00:00:09.06,0.046369481831789,0,
00:00:09.064,0.0802903771400452,0,
00:00:09.068,-0.0366869233548641,0,
00:00:09.072,-0.0963170155882835,0,
00:00:09.076,-0.0460242740809917,0,
00:00:09.08,0.0396898500621319,0,
00:00:09.084,0.0768539905548096,0,
00:00:09.088,0.00287715531885624,0,
00:00:09.092,-0.0238115228712559,0,
00:00:09.096,-0.028228173032403,0,
00:00:09.1,-0.00522947497665882,0,
00:00:09.104,0.0243440438061953,0,
00:00:09.108,0.0114855356514454,0,
00:00:09.112,-0.0113053442910314,0,
00:00:09.116,0.00656136963516474,0,
00:00:09.12,-0.0160026587545872,0,
00:00:09.124,-0.0157827641814947,0,
00:00:09.128,-0.00661219144240022,0,
00:00:09.132,0.0270483233034611,0,
00:00:09.136,0.057342067360878,0,
00:00:09.14,-0.0309392455965281,0,
00:00:09.144,-0.0535431168973446,0,
00:00:09.148,-0.0113890031352639,0,
00:00:09.152,0.0269205830991268,0,
00:00:09.156,0.0175421163439751,0,
00:00:09.16,0.0363851226866245,0,
00:00:09.164,-0.0286243632435799,0,
00:00:09.168,-0.0345114506781101,0,
00:00:09.172,-0.0104959420859814,0,
00:00:09.176,0.0418599359691143,0,
00:00:09.18,-0.00326388119719923,0,
00:00:09.184,0.010110953822732,0,
00:00:09.188,-0.00764313852414489,0,
00:00:09.192,-0.0195107348263264,0,
00:00:09.196,0.00113435462117195,0,
00:00:09.2,-0.00641755387187004,0,
00:00:09.204,0.0140969287604094,0,
00:00:09.208,0.0130158923566341,0,
00:00:09.212,-0.00862411875277758,0,
00:00:09.216,-0.000702097080647945,0,
00:00:09.22,-6.01106949034147E-05,0,
00:00:09.224,-0.00106447632424533,0,
00:00:09.228,0.00059230433544144,0,
00:00:09.232,-0.00300810998305678,0,
00:00:09.236,0.000225451221922413,0,
00:00:09.24,0.00868150126188993,0,
00:00:09.244,-0.0162004493176937,0,
00:00:09.248,-0.00708627514541149,0,
00:00:09.252,0.015857994556427,0,
00:00:09.256,-0.00357248936779797,0,
00:00:09.26,0.0161098632961512,0,
00:00:09.264,0.00102568150032312,0,
00:00:09.268,-0.0116955684497952,0,
00:00:09.272,-0.00446767918765545,0,
00:00:09.276,-0.00138434453401715,0,
00:00:09.28,0.000258239480899647,0,
00:00:09.284,-0.00718008819967508,0,
00:00:09.288,0.0113070020452142,0,
00:00:09.292,0.00770882004871964,0,
00:00:09.296,-0.00445902068167925,0,
00:00:09.3,-0.00938774086534977,0,
00:00:09.304,0.00390443508513272,0,
00:00:09.308,0.0062535535544157,0,
00:00:09.312,-0.0115184625610709,0,
00:00:09.316,0.00446736300364137,0,
00:00:09.32,0.00568343745544553,0,
00:00:09.324,0.0101842600852251,0,
00:00:09.328,-0.00950344186276197,0,
00:00:09.332,-0.0136075466871262,0,
00:00:09.336,0.00515296682715416,0,
00:00:09.34,0.00193119421601295,0,
00:00:09.344,0.00375153752975166,0,
00:00:09.348,0.00164840405341238,0,
00:00:09.352,-0.00685200840234756,0,
00:00:09.356,0.00221566506661475,0,
00:00:09.36,-0.000727758917491883,0,
00:00:09.364,0.00545637309551239,0,
00:00:09.368,0.00477418629452586,0,
00:00:09.372,-0.00113123864866793,0,
00:00:09.376,-0.008820915594697,0,
00:00:09.38,-0.00674086576327682,0,
00:00:09.384,0.00715182675048709,0,
00:00:09.388,0.00578166171908379,0,
00:00:09.392,0.00286133564077318,0,
00:00:09.396,-0.00868281908333302,0,
00:00:09.4,-0.00701908487826586,0,
00:00:09.404,0.00724308425560594,0,
00:00:09.408,0.00606332067400217,0,
00:00:09.412,-0.00319300685077906,0,
00:00:09.416,-0.00488898018375039,0,
00:00:09.42,0.0100355828180909,0,
00:00:09.424,-0.00694794673472643,0,
00:00:09.428,0.0012436299584806,0,
00:00:09.432,-0.00106925843283534,0,
00:00:09.436,-0.00293548870831728,0,
00:00:09.44,-0.00215571885928512,0,
00:00:09.444,0.0041419449262321,0,
00:00:09.448,0.0165260080248117,0,
00:00:09.452,-0.0124409943819046,0,
00:00:09.456,-0.00880536902695894,0,
00:00:09.46,0.00480728922411799,0,
00:00:09.464,-0.00245189829729497,0,
00:00:09.468,0.0016299121780321,0,
00:00:09.472,0.000320808496326208,0,
00:00:09.476,0.00340682291425765,0,
00:00:09.48,-0.000317285128403455,0,
00:00:09.484,0.00349072250537574,0,
00:00:09.488,-0.00624810019508004,0,
00:00:09.492,0.000833190511912107,0,
00:00:09.496,0.00768430670723319,0,
00:00:09.5,-0.00774872722104192,0,
00:00:09.504,-0.00571704609319568,0,
00:00:09.508,0.0022361814044416,0,
00:00:09.512,0.00180802738759667,0,
00:00:09.516,0.00443521933630109,0,
00:00:09.52,0.00203024502843618,0,
00:00:09.524,-0.00288976891897619,0,
00:00:09.528,0.00187666609417647,0,
00:00:09.532,-0.00228367885574698,0,
00:00:09.536,-0.000283808476524428,0,
00:00:09.54,-0.000753739266656339,0,
00:00:09.544,-0.00513098388910294,0,
00:00:09.548,0.00341127743013203,0,
00:00:09.552,-0.0007208067108877,0,
00:00:09.556,0.0028556864708662,0,
00:00:09.56,0.00221879757009447,0,
00:00:09.564,0.000348003639373928,0,
00:00:09.568,-0.00312016112729907,0,
00:00:09.572,0.000555106729734689,0,
00:00:09.576,0.00478808535262942,0,
00:00:09.58,-0.00408056192100048,0,
00:00:09.584,-0.00595312751829624,0,
00:00:09.588,0.00107023667078465,0,
00:00:09.592,0.00310601969249547,0,
00:00:09.596,0.00234635430388153,0,
00:00:09.6,-0.00136883382219821,0,
00:00:09.604,0.00139128998853266,0,
00:00:09.608,0.00264632934704423,0,
00:00:09.612,-0.00267329043708742,0,
00:00:09.616,-0.00285373674705625,0,
00:00:09.62,-0.00111034384462982,0,
00:00:09.624,0.00054138881387189,0,
00:00:09.628,-0.000802643655333668,0,
00:00:09.632,0.0030930913053453,0,
00:00:09.636,0.0021566457580775,0,
00:00:09.64,0.00217310013249516,0,
00:00:09.644,-0.00529798120260239,0,
00:00:09.648,-0.00111991725862026,0,
00:00:09.652,0.000576924940105528,0,
00:00:09.656,0.000888689944986254,0,
00:00:09.66,0.00265496969223022,0,
00:00:09.664,-0.00182680890429765,0,
00:00:09.668,-0.00178519519977272,0,
00:00:09.672,-0.000407642975915223,0,
00:00:09.676,0.000673956470564008,0,
00:00:09.68,0.000975067436229438,0,
00:00:09.684,0.000672159425448626,0,
00:00:09.688,0.000161992051289417,0,
00:00:09.692,-0.000231965226703323,0,
00:00:09.696,-0.000375984178390354,0,
00:00:09.7,-0.000304695277009159,0,
00:00:09.704,-0.000134484071168117,0,
00:00:09.708,2.20671463466715E-05,0,
00:00:09.712,0.000103997168480419,0,
00:00:09.716,0.000107281091914047,0,
00:00:09.72,6.31887378403917E-05,0,
00:00:09.724,0.00208609248511493,0,
00:00:09.728,-0.00407611206173897,0,
00:00:09.732,0.000298371247481555,0,
00:00:09.736,0.00143930909689516,0,
00:00:09.74,0.00308628613129258,0,
00:00:09.744,-0.00178610265720636,0,
00:00:09.748,-0.00410447875037789,0,
00:00:09.752,0.00125888944603503,0,
00:00:09.756,0.00418279087170959,0,
00:00:09.76,-0.000878469960298389,0,
00:00:09.764,-0.00382621213793755,0,
00:00:09.768,0.00311471126042306,0,
00:00:09.772,0.00181017944123596,0,
00:00:09.776,-0.00698255281895399,0,
00:00:09.78,0.00398594420403242,0,
00:00:09.784,0.0012735640630126,0,
00:00:09.788,-5.53875324840192E-05,0,
00:00:09.792,-0.000496637891046703,0,
00:00:09.796,-0.000443682976765558,0,
00:00:09.8,-0.000205178745090961,0,
00:00:09.804,1.55860016093357E-05,0,
00:00:09.808,0.000128063853480853,0,
00:00:09.812,0.000131503722514026,0,
00:00:09.816,7.27185761206783E-05,0,
00:00:09.82,-0.00207087537273765,0,
00:00:09.824,0.0019374672556296,0,
00:00:09.828,0.00159504869952798,0,
00:00:09.832,0.00222053891047835,0,
00:00:09.836,-0.00490367086604238,0,
00:00:09.84,0.00138895062264055,0,
00:00:09.844,-0.00112642743624747,0,
00:00:09.848,-0.000691628840286285,0,
00:00:09.852,0.000314618519041687,0,
00:00:09.856,0.000854035199154168,0,
00:00:09.86,0.000777112261857837,0,
00:00:09.864,0.000356127362465486,0,
00:00:09.868,-7.4982614023611E-05,0,
00:00:09.872,-0.000313920521875843,0,
00:00:09.876,-0.000328613707097247,0,
00:00:09.88,0.00187525921501219,0,
00:00:09.884,-0.00409236270934343,0,
00:00:09.888,0.000402295612730086,0,
00:00:09.892,0.00156874570529908,0,
00:00:09.896,0.00109928473830223,0,
00:00:09.9,0.000216133266803809,0,
00:00:09.904,0.00166833435650915,0,
00:00:09.908,-0.00463023269549012,0,
00:00:09.912,-7.82233692007139E-05,0,
00:00:09.916,0.00134145526681095,0,
00:00:09.92,0.00320089422166348,0,
00:00:09.924,-0.00366859021596611,0,
00:00:09.928,0.000104505248600617,0,
00:00:09.932,0.000995569513179362,0,
00:00:09.936,0.000630675465799868,0,
00:00:09.94,2.30983077926794E-05,0,
00:00:09.944,-0.000349042442394421,0,
00:00:09.948,-0.000395150535041466,0,
00:00:09.952,-0.00023153773508966,0,
00:00:09.956,0.00205313554033637,0,
00:00:09.96,-0.00393426418304443,0,
00:00:09.964,0.000485186581499875,0,
00:00:09.968,0.00364953000098467,0,
00:00:09.972,-0.0029939548112452,0,
00:00:09.976,0.000497921369969845,0,
00:00:09.98,0.00309847202152014,0,
00:00:09.984,-0.00154489255510271,0,
00:00:09.988,-0.00186009251046926,0,
00:00:09.992,-0.000681821082253009,0,
00:00:09.996,-0.00166332186199725,0,
00:00:10,0.0028239896055311,0,
00:00:10.004,0.00440802332013845,0,
00:00:10.008,-0.00153503753244877,0,
00:00:10.012,-0.00260702823288739,0,
00:00:10.016,-0.00151164433918893,0,
00:00:10.02,-7.63837742852047E-05,0,
00:00:10.024,0.000789952406194061,0,
00:00:10.028,0.000919341342523694,0,
00:00:10.032,-0.00150824012234807,0,
00:00:10.036,0.00414856756106019,0,
00:00:10.04,-0.000563611916732043,0,
00:00:10.044,-0.00386909930966794,0,
00:00:10.048,0.000708779902197421,0,
00:00:10.052,0.00136329454835504,0,
00:00:10.056,0.000609803653787822,0,
00:00:10.06,-0.000197714296518825,0,
00:00:10.064,-0.000554760976228863,0,
00:00:10.068,-0.000474607106298208,0,
00:00:10.072,0.00189034920185804,0,
00:00:10.076,-0.00188906560651958,0,
00:00:10.08,-0.0034979113843292,0,
00:00:10.084,0.00408307136967778,0,
00:00:10.088,0.000624463835265487,0,
00:00:10.092,-0.000426026992499828,0,
00:00:10.096,-0.000443213968537748,0,
00:00:10.1,-0.000172283063875511,0,
00:00:10.104,4.78309484606143E-05,0,
00:00:10.108,-0.00195118377450854,0,
00:00:10.112,0.00414179218932986,0,
00:00:10.116,-0.000316879595629871,0,
00:00:10.12,-0.00150725140701979,0,
00:00:10.124,-0.00108196458313614,0,
00:00:10.128,-0.000233590195421129,0,
00:00:10.132,-0.00169912504497916,0,
00:00:10.136,0.00460476754233241,0,
00:00:10.14,0.00214261072687805,0,
00:00:10.144,-0.00539078610017896,0,
00:00:10.148,-0.00078309333184734,0,
00:00:10.152,0.00109157431870699,0,
00:00:10.156,0.00125393795315176,0,
00:00:10.16,-0.00142052676528692,0,
00:00:10.164,0.00404104497283697,0,
00:00:10.168,-0.000723325822036713,0,
00:00:10.172,0.000177907641045749,0,
00:00:10.176,-0.00325755239464343,0,
00:00:10.18,-0.0039469487965107,0,
00:00:10.184,0.00437659304589033,0,
00:00:10.188,0.00120747997425497,0,
00:00:10.192,5.64744841540232E-05,0,
00:00:10.196,-0.000239858287386596,0,
00:00:10.2,-0.000226870673941448,0,
00:00:10.204,-0.000137767099658959,0,
00:00:10.208,-5.94656194152776E-05,0,
00:00:10.212,-0.00208977959118783,0,
00:00:10.216,0.00405402854084969,0,
00:00:10.22,-0.00240566814318299,0,
00:00:10.224,0.000508751778397709,0,
00:00:10.228,0.0026927285362035,0,
00:00:10.232,-0.00406470894813538,0,
00:00:10.236,0.00195974949747324,0,
00:00:10.24,-0.000989890191704035,0,
00:00:10.244,-0.000868976290803403,0,
00:00:10.248,-0.00203977106139064,0,
00:00:10.252,0.00261696055531502,0,
00:00:10.256,0.00234047789126635,0,
00:00:10.26,0.000568551535252482,0,
00:00:10.264,-0.000829827506095171,0,
00:00:10.268,-0.00126028421800584,0,
00:00:10.272,0.00115924619603902,0,
00:00:10.276,-0.00433151004835963,0,
00:00:10.28,-0.0015056513948366,0,
00:00:10.284,0.00596654042601585,0,
00:00:10.288,0.0010742221493274,0,
00:00:10.292,-0.00109324383083731,0,
00:00:10.296,0.000648843415547162,0,
00:00:10.3,-0.00490567553788424,0,
00:00:10.304,0.00228981580585241,0,
00:00:10.308,-0.000153168788529001,0,
00:00:10.312,-0.00222759786993265,0,
00:00:10.316,0.00230829021893442,0,
00:00:10.32,0.00425811856985092,0,
00:00:10.324,-0.00140341965015978,0,
00:00:10.328,-0.00446630967780948,0,
00:00:10.332,0.00061535689746961,0,
00:00:10.336,0.00367611600086093,0,
00:00:10.34,-0.00106459413655102,0,
00:00:10.344,-0.00373016111552715,0,
00:00:10.348,0.00334256095811725,0,
00:00:10.352,-5.4691805416951E-05,0,
00:00:10.356,-0.000743632670491934,0,
00:00:10.36,-0.00246753916144371,0,
00:00:10.364,0.0041352934204042,0,
00:00:10.368,-1.39329877129057E-05,0,
00:00:10.372,-0.00117452442646027,0,
00:00:10.376,-0.000895461824256927,0,
00:00:10.38,-0.000226477350224741,0,
00:00:10.384,-0.00180760654620826,0,
00:00:10.388,0.00447156745940447,0,
00:00:10.392,-2.52089303103276E-05,0,
00:00:10.396,-0.00136870855931193,0,
00:00:10.4,-0.00109624583274126,0,
00:00:10.404,-0.0003332203195896,0,
00:00:10.408,0.000268870237050578,0,
00:00:10.412,0.000486958801047876,0,
00:00:10.416,0.00246169208548963,0,
00:00:10.42,-0.00182744220364839,0,
00:00:10.424,-0.00170428224373609,0,
00:00:10.428,-0.000339062738930807,0,
00:00:10.432,0.000690366956405342,0,
00:00:10.436,0.000945765408687294,0,
00:00:10.44,0.000624918029643595,0,
00:00:10.444,0.000123000456369482,0,
00:00:10.448,-0.00232569477520883,0,
00:00:10.452,0.0016012794803828,0,
00:00:10.456,0.00342587567865849,0,
00:00:10.46,-0.00191914069000632,0,
00:00:10.464,-0.00245439307764173,0,
00:00:10.468,-0.00109901581890881,0,
00:00:10.472,0.000316513207508251,0,
00:00:10.476,0.00100479426328093,0,
00:00:10.48,0.000938548299018294,0,
00:00:10.484,0.000464273703983054,0,
00:00:10.488,0.0020427037961781,0,
00:00:10.492,-0.00437190290540457,0,
00:00:10.496,-2.3249145669979E-05,0,
00:00:10.5,0.00123852235265076,0,
00:00:10.504,0.00096584641141817,0,
00:00:10.508,0.000254846381722018,0,
00:00:10.512,-0.000284725101664662,0,
00:00:10.516,-0.000459974544355646,0,
00:00:10.52,0.00173019175417721,0,
00:00:10.524,-0.00209238776005805,0,
00:00:10.528,-0.00156774930655956,0,
00:00:10.532,-1.90786613529781E-05,0,
00:00:10.536,0.00098337687086314,0,
00:00:10.54,0.00109834026079625,0,
00:00:10.544,0.000630179885774851,0,
00:00:10.548,-0.00203588465228677,0,
00:00:10.552,0.00370206171646714,0,
00:00:10.556,-0.000773284293245524,0,
00:00:10.56,-0.00177521642763168,0,
00:00:10.564,-0.00319895264692605,0,
00:00:10.568,0.00185165100265294,0,
00:00:10.572,0.00217018439434469,0,
00:00:10.576,0.000841603614389896,0,
00:00:10.58,-0.000403031794121489,0,
00:00:10.584,0.00115437072236091,0,
00:00:10.588,-0.00482348166406155,0,
00:00:10.592,0.00209778919816017,0,
00:00:10.596,-0.000393241614801809,0,
00:00:10.6,-0.000292166136205196,0,
00:00:10.604,0.000326568930177018,0,
00:00:10.608,0.000623123254626989,0,
00:00:10.612,0.000498112523928285,0,
00:00:10.616,0.000166664860444143,0,
00:00:10.62,-0.000131467240862548,0,
00:00:10.624,0.00180721213109791,0,
00:00:10.628,-0.00429428787901998,0,
00:00:10.632,0.000204972660867497,0,
00:00:10.636,0.00145725021138787,0,
00:00:10.64,0.00316107063554227,0,
00:00:10.644,-0.00171030766796321,0,
00:00:10.648,-0.0040606209076941,0,
00:00:10.652,0.00126528146211058,0,
00:00:10.656,0.0020887847058475,0,
00:00:10.66,0.00107208080589771,0,
00:00:10.664,-0.000126336308312602,0,
00:00:10.668,-0.000765594362746924,0,
00:00:10.672,-0.000771768915001303,0,
00:00:10.676,-0.000410849810577929,0,
00:00:10.68,-0.00207832548767328,0,
00:00:10.684,0.00222375686280429,0,
00:00:10.688,0.00401156488806009,0,
00:00:10.692,-0.00160203850828111,0,
00:00:10.696,-0.000353298848494887,0,
00:00:10.7,-0.0053060008212924,0,
00:00:10.704,0.00253062997944653,0,
00:00:10.708,0.000360309350071475,0,
00:00:10.712,-0.00180058751720935,0,
00:00:10.716,0.00455417716875672,0,
00:00:10.72,0.000139055846375413,0,
00:00:10.724,-0.00125615508295596,0,
00:00:10.728,-0.00110451958607882,0,
00:00:10.732,-0.00043981839553453,0,
00:00:10.736,0.000132189627038315,0,
00:00:10.74,0.000382018857635558,0,
00:00:10.744,0.000340372935170308,0,
00:00:10.748,0.000154967448906973,0,
00:00:10.752,-2.79594551102491E-05,0,
00:00:10.756,0.00194910808932036,0,
00:00:10.76,-0.00418264931067824,0,
00:00:10.764,0.00233061984181404,0,
00:00:10.768,-0.000524144270457327,0,
00:00:10.772,0.0014834109460935,0,
00:00:10.776,-0.00400058273226023,0,
00:00:10.78,0.000810772238764912,0,
00:00:10.784,0.00195557763800025,0,
00:00:10.788,0.0033385343849659,0,
00:00:10.792,-0.00182927760761231,0,
00:00:10.796,-0.0043210294097662,0,
00:00:10.8,0.00102421373594552,0,
00:00:10.804,0.00403392408043146,0,
00:00:10.808,-0.000914938107598573,0,
00:00:10.812,-0.00378183671273291,0,
00:00:10.816,0.00111141905654222,0,
00:00:10.82,0.00384332425892353,0,
00:00:10.824,-0.00116449035704136,0,
00:00:10.828,-0.0018689624266699,0,
00:00:10.832,-0.00297437352128327,0,
00:00:10.836,0.00423542130738497,0,
00:00:10.84,-0.00168549572117627,0,
00:00:10.844,0.00119599781464785,0,
00:00:10.848,0.00303248898126185,0,
00:00:10.852,-0.00201911898329854,0,
00:00:10.856,-0.00233606458641589,0,
00:00:10.86,-0.000926927663385868,0,
00:00:10.864,-0.00165112328249961,0,
00:00:10.868,0.00506621785461903,0,
00:00:10.872,0.000546300492715091,0,
00:00:10.876,-0.00107857538387179,0,
00:00:10.88,-0.00110986409708858,0,
00:00:10.884,-0.00260239117778838,0,
00:00:10.888,0.00410066917538643,0,
00:00:10.892,1.1782626643253E-05,0,
00:00:10.896,-0.00319114606827497,0,
00:00:10.9,0.00322012393735349,0,
00:00:10.904,-0.000511946738697588,0,
00:00:10.908,-0.00117475958541036,0,
00:00:10.912,-0.00267526926472783,0,
00:00:10.916,0.0041621713899076,0,
00:00:10.92,0.00222237897105515,0,
00:00:10.924,-0.00505206314846873,0,
00:00:10.928,0.00162184424698353,0,
00:00:10.932,-0.00278844381682575,0,
00:00:10.936,0.003661734983325,0,
00:00:10.94,-0.00203558919019997,0,
00:00:10.944,0.00122128240764141,0,
00:00:10.948,0.00325572048313916,0,
00:00:10.952,-0.00180680537596345,0,
00:00:10.956,-0.00224642269313335,0,
00:00:10.96,-0.000963005993980914,0,
00:00:10.964,-0.00175339996349066,0,
00:00:10.968,0.00288956542499363,0,
00:00:10.972,0.00453911488875747,0,
00:00:10.976,-0.00349652138538659,0,
00:00:10.98,-0.000575853453483433,0,
00:00:10.984,0.000128233281429857,0,
00:00:10.988,6.55187905067578E-05,0,
00:00:10.992,0.00198366376571357,0,
00:00:10.996,-0.00210852082818747,0,
00:00:11,-0.00171084888279438,0,
00:00:11.004,-0.000153360175318085,0,
00:00:11.008,0.000925873464439064,0,
00:00:11.012,0.00111802597530186,0,
00:00:11.016,0.000690189132001251,0,
00:00:11.02,9.92506393231452E-05,0,
00:00:11.024,-0.000315007317112759,0,
00:00:11.028,-0.000435248686699197,0,
00:00:11.032,-0.00032461219234392,0,
00:00:11.036,-0.000122842931887135,0,
00:00:11.04,4.71596467832569E-05,0,
00:00:11.044,0.000126176222693175,0,
00:00:11.048,0.000118228723295033,0,
00:00:11.052,0.00213864538818598,0,
00:00:11.056,-0.00197178637608886,0,
00:00:11.06,-0.00167469191364944,0,
00:00:11.064,-0.00229258951731026,0,
00:00:11.068,0.00279121194034815,0,
00:00:11.072,0.00473770359531045,0,
00:00:11.076,-0.00323675479739904,0,
00:00:11.08,-0.000415462098317221,0,
00:00:11.084,0.00222245906479657,0,
00:00:11.088,-0.00199032458476722,0,
00:00:11.092,-0.00184178072959185,0,
00:00:11.096,-0.000389073509722948,0,
00:00:11.1,0.000745224475394934,0,
00:00:11.104,0.00106410856824368,0,
00:00:11.108,0.000745271274354309,0,
00:00:11.112,-0.00187470321543515,0,
00:00:11.116,0.00174904684536159,0,
00:00:11.12,0.00332698808051646,0,
00:00:11.124,-0.00419870438054204,0,
00:00:11.128,-0.00273391813971102,0,
00:00:11.132,0.00450582290068269,0,
00:00:11.136,0.00223854184150696,0,
00:00:11.14,-0.00322380079887807,0,
00:00:11.144,-0.00476521207019687,0,
00:00:11.148,-0.000589511182624847,0,
00:00:11.152,0.00682752439752221,0,
00:00:11.156,0.00346411997452378,0,
00:00:11.16,-0.00323694152757525,0,
00:00:11.164,-0.00551516655832529,0,
00:00:11.168,0.00270326645113528,0,
00:00:11.172,0.000251562159974128,0,
00:00:11.176,-0.00212524365633726,0,
00:00:11.18,0.00217628292739391,0,
00:00:11.184,0.0040614353492856,0,
00:00:11.188,-0.00153638492338359,0,
00:00:11.192,-0.00241741235367954,0,
00:00:11.196,-0.00130664848256856,0,
00:00:11.2,3.8881495129317E-05,0,
00:00:11.204,0.00287282350473106,0,
00:00:11.208,-0.00319410185329616,0,
00:00:11.212,0.00289903534576297,0,
00:00:11.216,-0.00254232715815306,0,
00:00:11.22,0.0031816593836993,0,
00:00:11.224,-0.000641820020973682,0,
00:00:11.228,-0.00331826158799231,0,
00:00:11.232,-0.000715002417564392,0,
00:00:11.236,0.00580155104398727,0,
00:00:11.24,0.00238580396398902,0,
00:00:11.244,-0.00384486047551036,0,
00:00:11.248,-0.00556063512340188,0,
00:00:11.252,0.00509694823995233,0,
00:00:11.256,-0.00132249528542161,0,
00:00:11.26,-0.00348636927083135,0,
00:00:11.264,0.00209035631269217,0,
00:00:11.268,0.00276973797008395,0,
00:00:11.272,0.00134558114223182,0,
00:00:11.276,-0.000250316079473123,0,
00:00:11.28,-0.00317490426823497,0,
00:00:11.284,0.00294880615547299,0,
00:00:11.288,-0.000939910998567939,0,
00:00:11.292,-0.00150446896441281,0,
00:00:11.296,-0.00277685420587659,0,
00:00:11.3,0.000110649889393244,0,
00:00:11.304,0.00843919720500708,0,
00:00:11.308,-0.00149783631786704,0,
00:00:11.312,-0.00570443877950311,0,
00:00:11.316,0.00181390496436507,0,
00:00:11.32,-0.000515978550538421,0,
00:00:11.324,-0.000360777514288202,0,
00:00:11.328,-0.00176981661934406,0,
00:00:11.332,0.00469973310828209,0,
00:00:11.336,0.000217510416405275,0,
00:00:11.34,0.000831278041005135,0,
00:00:11.344,-0.0051664118655026,0,
00:00:11.348,-0.00218366389162838,0,
00:00:11.352,0.00566420098766685,0,
00:00:11.356,0.00109359144698828,0,
00:00:11.36,-0.00091728672850877,0,
00:00:11.364,-0.00124946271535009,0,
00:00:11.368,-0.000760143739171326,0,
00:00:11.372,-0.000117558905913029,0,
00:00:11.376,0.00237815431319177,0,
00:00:11.38,-0.00364543916657567,0,
00:00:11.384,0.000615443161223084,0,
00:00:11.388,0.00154791225213557,0,
00:00:11.392,0.00094750669086352,0,
00:00:11.396,-0.0020242533646524,0,
00:00:11.4,0.00146587158087641,0,
00:00:11.404,0.00311690242961049,0,
00:00:11.408,-0.00217535928823054,0,
00:00:11.412,-0.00463159009814262,0,
00:00:11.416,0.000916541670449078,0,
00:00:11.42,0.00414375262334943,0,
00:00:11.424,-0.000689080450683832,0,
00:00:11.428,-0.00148904323577881,0,
00:00:11.432,-0.000735243200324476,0,
00:00:11.436,0.000151613698108122,0,
00:00:11.44,0.00059037673054263,0,
00:00:11.444,0.000550879398360848,0,
00:00:11.448,0.000256517145317048,0,
00:00:11.452,-4.71835628559347E-05,0,
00:00:11.456,-0.000215811334783211,0,
00:00:11.46,-0.000226995747652836,0,
00:00:11.464,-0.000138195406179875,0,
00:00:11.468,-2.7647525712382E-05,0,
00:00:11.472,4.87009092466906E-05,0,
00:00:11.476,7.24408600945026E-05,0,
00:00:11.48,5.52559904463124E-05,0,
00:00:11.484,2.1511750674108E-05,0,
00:00:11.488,-7.43747750675539E-06,0,
00:00:11.492,-0.00209693959914148,0,
00:00:11.496,0.0040310132317245,0,
00:00:11.5,0.0017316690646112,0,
00:00:11.504,-0.00551687087863684,0,
00:00:11.508,-0.000681041681673378,0,
00:00:11.512,0.00128685240633786,0,
00:00:11.516,0.00142144691199064,0,
00:00:11.52,0.00281094945967197,0,
00:00:11.524,-0.00406662048771977,0,
00:00:11.528,-0.00010978925274685,0,
00:00:11.532,0.00304983486421406,0,
00:00:11.536,-0.00125411979388446,0,
00:00:11.54,-0.00358492345549166,0,
00:00:11.544,0.00151881063356996,0,
00:00:11.548,0.00210356735624373,0,
00:00:11.552,0.00302332895807922,0,
00:00:11.556,-0.00224824505858123,0,
00:00:11.56,-0.00250036083161831,0,
00:00:11.564,-0.00304392678663135,0,
00:00:11.568,0.00244007329456508,0,
00:00:11.572,0.00479260366410017,0,
00:00:11.576,-0.00088094815146178,0,
00:00:11.58,-0.00416988134384155,0,
00:00:11.584,0.00273690815083683,0,
00:00:11.588,-0.000488765595946461,0,
00:00:11.592,0.00119023839943111,0,
00:00:11.596,-0.0022742806468159,0,
00:00:11.6,-0.00136627734173089,0,
00:00:11.604,0.000309933355310932,0,
00:00:11.608,0.00121503637637943,0,
00:00:11.612,0.00114849244710058,0,
00:00:11.616,0.000537146173883229,0,
00:00:11.62,-0.000105108498246409,0,
00:00:11.624,-0.000465982331661507,0,
00:00:11.628,-0.00256765820086002,0,
00:00:11.632,0.00167302833870053,0,
00:00:11.636,0.00365377706475556,0,
00:00:11.64,-0.00169621885288507,0,
00:00:11.644,-0.00232950551435351,0,
00:00:11.648,-0.00108489976264536,0,
00:00:11.652,0.000259825115790591,0,
00:00:11.656,0.000931038404814899,0,
00:00:11.66,0.0008864740957506,0,
00:00:11.664,0.000447233935119584,0,
00:00:11.668,-2.23158494918607E-05,0,
00:00:11.672,-0.000298407714581117,0,
00:00:11.676,-0.000336953671649098,0,
00:00:11.68,-0.000216964050196111,0,
00:00:11.684,-5.43792157259304E-05,0,
00:00:11.688,6.3859682995826E-05,0,
00:00:11.692,0.000105573657492641,0,
00:00:11.696,-0.00199111783877015,0,
00:00:11.7,0.00201142719015479,0,
00:00:11.704,0.00371004594489932,0,
00:00:11.708,-0.00390415056608617,0,
00:00:11.712,0.00153612054418772,0,
00:00:11.716,-0.00155524699948728,0,
00:00:11.72,-0.00125515053514391,0,
00:00:11.724,-6.63688333588652E-05,0,
00:00:11.728,0.000756603840272874,0,
00:00:11.732,0.000894776778295636,0,
00:00:11.736,0.000552703568246216,0,
00:00:11.74,8.49048155942E-05,0,
00:00:11.744,-0.000243563888943754,0,
00:00:11.748,-0.00241643912158906,0,
00:00:11.752,0.00171976326964796,0,
00:00:11.756,0.00362000335007906,0,
00:00:11.76,-0.00176244473550469,0,
00:00:11.764,-0.0023863036185503,0,
00:00:11.768,-0.00111185107380152,0,
00:00:11.772,0.000261857931036502,0,
00:00:11.776,-0.00112665968481451,0,
00:00:11.78,0.00495726335793734,0,
00:00:11.784,0.000126116603496484,0,
00:00:11.788,-0.00148478546179831,0,
00:00:11.792,-0.00132236641366035,0,
00:00:11.796,-0.000528169213794172,0,
00:00:11.8,0.000175253531779163,0,
00:00:11.804,0.00256838835775852,0,
00:00:11.808,-0.00360395619645715,0,
00:00:11.812,0.000548607786186039,0,
00:00:11.816,0.00144489342346787,0,
00:00:11.82,0.000866987451445311,0,
00:00:11.824,1.85730114026228E-05,0,
00:00:11.828,-0.00257623894140124,0,
00:00:11.832,0.00347985862754285,0,
00:00:11.836,-0.000681307923514396,0,
00:00:11.84,-0.00151982007082552,0,
00:00:11.844,-0.00294790719635785,0,
00:00:11.848,0.00199673185124993,0,
00:00:11.852,0.00426849629729986,0,
00:00:11.856,-0.00326775549910963,0,
00:00:11.86,0.00192565564066172,0,
00:00:11.864,-0.00149053940549493,0,
00:00:11.868,0.000660139718092978,0,
00:00:11.872,-0.00434440840035677,0,
00:00:11.876,0.000919949961826205,0,
00:00:11.88,0.00229556555859745,0,
00:00:11.884,0.00159748771693558,0,
00:00:11.888,0.000336226366925985,0,
00:00:11.892,-0.00265428307466209,0,
00:00:11.896,0.00319449976086617,0,
00:00:11.9,-0.000969743239693344,0,
00:00:11.904,-0.00168797338847071,0,
00:00:11.908,-0.000898334663361311,0,
00:00:11.912,8.93212054506876E-05,0,
00:00:11.916,0.000644463521894068,0,
00:00:11.92,0.000674985931254923,0,
00:00:11.924,0.000383855949621648,0,
00:00:11.928,3.56013370037545E-05,0,
00:00:11.932,-0.000190782186109573,0,
00:00:11.936,0.00183087436016649,0,
00:00:11.94,-0.00422407686710358,0,
00:00:11.944,0.000276060134638101,0,
00:00:11.948,0.00149987649638206,0,
00:00:11.952,0.00316927838139236,0,
00:00:11.956,-0.0017256272258237,0,
00:00:11.96,-0.00408312631770968,0,
00:00:11.964,0.00124820519704372,0,
00:00:11.968,0.00415796879678965,0,
00:00:11.972,-0.000900893355719745,0,
00:00:11.976,-0.00383759895339608,0,
00:00:11.98,0.00103889068122953,0,
00:00:11.984,0.00171633460558951,0,
00:00:11.988,0.00286981626413763,0,
00:00:11.992,-0.00219173566438258,0,
00:00:11.996,-0.00441744038835168,0,
00:00:12,0.00323483557440341,0,
00:00:12.004,-0.00186106108594686,0,
00:00:12.008,0.00366840464994311,0,
00:00:12.012,-0.00255146599374712,0,
00:00:12.016,0.000665500410832465,0,
00:00:12.02,0.000874713936354965,0,
00:00:12.024,0.00223818328231573,0,
00:00:12.028,-0.00239699915982783,0,
00:00:12.032,-0.00635969778522849,0,
00:00:12.036,0.00547832669690251,0,
00:00:12.04,0.00415850477293134,0,
00:00:12.044,-0.00415630731731653,0,
00:00:12.048,-0.000670022913254797,0,
00:00:12.052,0.000511827296577394,0,
00:00:12.056,0.00263436674140394,0,
00:00:12.06,-0.00175073952414095,0,
00:00:12.064,-0.00379788246937096,0,
00:00:12.068,0.00159032002557069,0,
00:00:12.072,0.00438418565317988,0,
00:00:12.076,-0.00084112148033455,0,
00:00:12.08,-0.00390168186277151,0,
00:00:12.084,0.0030052678193897,0,
00:00:12.088,0.00172769813798368,0,
00:00:12.092,-0.0049381242133677,0,
00:00:12.096,-0.00212894077412784,0,
00:00:12.1,0.00569013971835375,0,
00:00:12.104,0.00110651610884815,0,
00:00:12.108,0.00114995101466775,0,
00:00:12.112,-0.00532877817749977,0,
00:00:12.116,0.00161355477757752,0,
00:00:12.12,-0.000656733696814626,0,
00:00:12.124,-0.000334828277118504,0,
00:00:12.128,0.000412129447795451,0,
00:00:12.132,0.000734557106625289,0,
00:00:12.136,0.000570105097722262,0,
00:00:12.14,0.00225724070332944,0,
00:00:12.144,-0.00420893356204033,0,
00:00:12.148,2.51138117164373E-05,0,
00:00:12.152,0.00119136041030288,0,
00:00:12.156,0.000879429397173226,0,
00:00:12.16,0.00225685373879969,0,
00:00:12.164,-0.00229527172632515,0,
00:00:12.168,-0.00417548278346658,0,
00:00:12.172,0.00147596967872232,0,
00:00:12.176,0.00239327689632773,0,
00:00:12.18,0.00337069481611252,0,
00:00:12.184,-0.00202604033984244,0,
00:00:12.188,-0.00245265010744333,0,
00:00:12.192,-0.00104602554347366,0,
00:00:12.196,0.000345471693435684,0,
00:00:12.2,0.000981956254690886,0,
00:00:12.204,0.00295544415712357,0,
00:00:12.208,-0.00157392385881394,0,
00:00:12.212,-0.00379292294383049,0,
00:00:12.216,0.00146413932088763,0,
00:00:12.22,0.00421265140175819,0,
00:00:12.224,-0.00305527658201754,0,
00:00:12.228,8.2521561125759E-05,0,
00:00:12.232,0.000596429861616343,0,
00:00:12.236,0.000200221285922453,0,
00:00:12.24,0.00185430550482124,0,
00:00:12.244,-0.00441773049533367,0,
00:00:12.248,6.83118996676058E-05,0,
00:00:12.252,0.00139784079510719,0,
00:00:12.256,0.0011125085875392,0,
00:00:12.26,0.00241529382765293,0,
00:00:12.264,-0.0022441353648901,0,
00:00:12.268,-0.00213158712722361,0,
00:00:12.272,-0.000565569091122597,0,
00:00:12.276,0.00069346884265542,0,
00:00:12.28,0.00108982541132718,0,
00:00:12.284,0.000793337007053196,0,
00:00:12.288,-0.00184086512308568,0,
00:00:12.292,0.00383255095221102,0,
00:00:12.296,-0.000736392685212195,0,
00:00:12.3,-0.0038846549578011,0,
00:00:12.304,0.00286745745688677,0,
00:00:12.308,0.00156863196752965,0,
00:00:12.312,-0.00501060578972101,0,
00:00:12.316,-1.87362147698877E-05,0,
00:00:12.32,0.00381251494400203,0,
00:00:12.324,-0.000434572400990874,0,
00:00:12.328,-0.00103953166399151,0,
00:00:12.332,-0.00249501061625779,0,
00:00:12.336,0.00426488555967808,0,
00:00:12.34,0.000120619595691096,0,
00:00:12.344,-0.00112011935561895,0,
00:00:12.348,-0.000926820270251483,0,
00:00:12.352,-0.000302699627354741,0,
00:00:12.356,0.000194646345335059,0,
00:00:12.36,0.000378537311917171,0,
00:00:12.364,-0.00177368288859725,0,
00:00:12.368,0.00416489085182548,0,
00:00:12.372,0.001689737662673,0,
00:00:12.376,-0.00564723322167993,0,
00:00:12.38,-0.000808662502095103,0,
00:00:12.384,0.00121509656310081,0,
00:00:12.388,0.00141303346026689,0,
00:00:12.392,-0.0013083751546219,0,
00:00:12.396,0.00200199149549007,0,
00:00:12.4,0.00330466544255614,0,
00:00:12.404,-0.00435511348769069,0,
00:00:12.408,0.00126170739531517,0,
00:00:12.412,-0.0036784999538213,0,
00:00:12.416,0.000828868243843317,0,
00:00:12.42,0.00380621338263154,0,
00:00:12.424,-0.00300165731459856,0,
00:00:12.428,0.000428797473432496,0,
00:00:12.432,0.00304840435273945,0,
00:00:12.436,-0.00154679850675166,0,
00:00:12.44,-0.00182485359255224,0,
00:00:12.444,-0.00271198037080467,0,
00:00:12.448,0.00242142914794385,0,
00:00:12.452,0.00457921531051397,0,
00:00:12.456,-0.00111293559893966,0,
00:00:12.46,-0.00223458698019385,0,
00:00:12.464,-0.00341498199850321,0,
00:00:12.468,0.00187393859960139,0,
00:00:12.472,0.00437479373067617,0,
00:00:12.476,-0.00101941439788789,0,
00:00:12.48,-0.00407810462638736,0,
00:00:12.484,0.000851786229759455,0,
00:00:12.488,0.00373052293434739,0,
00:00:12.492,-0.00113541795872152,0,
00:00:12.496,-0.00176578958053142,0,
00:00:12.5,-0.00079487101174891,0,
00:00:12.504,0.00024436175590381,0,
00:00:12.508,0.000732419721316546,0,
00:00:12.512,0.00066080444958061,0,
00:00:12.516,0.000300495943520218,0,
00:00:12.52,-6.06289904681034E-05,0,
00:00:12.524,-0.000257046951446682,0,
00:00:12.528,-0.000266763265244663,0,
00:00:12.532,-0.000160019175382331,0,
00:00:12.536,0.00204617809504271,0,
00:00:12.54,-0.0039918958209455,0,
00:00:12.544,-0.00165677978657186,0,
00:00:12.548,0.00558056123554707,0,
00:00:12.552,-0.00136491423472762,0,
00:00:12.556,0.00276148319244385,0,
00:00:12.56,0.000300428655464202,0,
00:00:12.564,-0.00627347966656089,0,
00:00:12.568,-0.00068456243025139,0,
00:00:12.572,0.00172046502120793,0,
00:00:12.576,0.00191260688006878,0,
00:00:12.58,0.00103951361961663,0,
00:00:12.584,-0.00203275331296027,0,
00:00:12.588,0.00349462544545531,0,
00:00:12.592,-0.000990907079540193,0,
00:00:12.596,-0.00396617222577333,0,
00:00:12.6,0.00293010077439249,0,
00:00:12.604,-0.000383337086532265,0,
00:00:12.608,0.00122424785513431,0,
00:00:12.612,-0.00435023568570614,0,
00:00:12.616,0.00060310069238767,0,
00:00:12.62,0.00195284921210259,0,
00:00:12.624,0.00140019587706774,0,
00:00:12.628,0.000316156860208139,0,
00:00:12.632,-0.000482676055980846,0,
00:00:12.636,0.00134319241624326,0,
00:00:12.64,-0.00252397055737674,0,
00:00:12.644,-0.0039116982370615,0,
00:00:12.648,0.00190199608914554,0,
00:00:12.652,0.00272148172371089,0,
00:00:12.656,0.00141906912904233,0,
00:00:12.66,-0.000102279016573448,0,
00:00:12.664,-0.000944188970606774,0,
00:00:12.668,-0.000993726192973554,0,
00:00:12.672,-0.000563441193662584,0,
00:00:12.676,-4.92225335619878E-05,0,
00:00:12.68,0.000283711036900058,0,
00:00:12.684,0.000361805316060781,0,
00:00:12.688,0.00233004591427743,0,
00:00:12.692,-0.00396816479042172,0,
00:00:12.696,-0.00179518305230886,0,
00:00:12.7,0.00540674431249499,0,
00:00:12.704,0.00266669737175107,0,
00:00:12.708,-0.00330192712135613,0,
00:00:12.712,-0.00305673247203231,0,
00:00:12.716,-0.000881166255567223,0,
00:00:12.72,-0.00118562299758196,0,
00:00:12.724,0.00554050551727414,0,
00:00:12.728,0.000791180587839335,0,
00:00:12.732,-0.00109230016823858,0,
00:00:12.736,-0.00127919018268585,0,
00:00:12.74,-0.000719030387699604,0,
00:00:12.744,-7.5706593634095E-05,0,
00:00:12.748,0.000312168122036383,0,
00:00:12.752,0.000384725455660373,0,
00:00:12.756,-0.00182721053715795,0,
00:00:12.76,0.00203013094142079,0,
00:00:12.764,0.00155641895253211,0,
00:00:12.768,0.00212031090632081,0,
00:00:12.772,-0.00499741174280643,0,
00:00:12.776,-0.000736676855012774,0,
00:00:12.78,0.000846102833747864,0,
00:00:12.784,0.000976354465819895,0,
00:00:12.788,0.000523276743479073,0,
00:00:12.792,3.26726767525543E-05,0,
00:00:12.796,-0.000244313705479726,0,
00:00:12.8,-0.00235554156824946,0,
00:00:12.804,0.00388467311859131,0,
00:00:12.808,0.00172138470225036,0,
00:00:12.812,-0.005439558532089,0,
00:00:12.816,-0.00265996321104467,0,
00:00:12.82,0.00540518946945667,0,
00:00:12.824,-0.000966435356531292,0,
00:00:12.828,0.00123064033687115,0,
00:00:12.832,0.000577187282033265,0,
00:00:12.836,0.00159935490228236,0,
00:00:12.84,-0.00292412168346345,0,
00:00:12.844,-0.00449430290609598,0,
00:00:12.848,0.00150645326357335,0,
00:00:12.852,0.00471324007958174,0,
00:00:12.856,-0.00247879861854017,0,
00:00:12.86,0.00046686505083926,0,
00:00:12.864,0.000708077102899551,0,
00:00:12.868,0.000106182160379831,0,
00:00:12.872,-0.000394919508835301,0,
00:00:12.876,0.0015638149343431,0,
00:00:12.88,-0.00230683106929064,0,
00:00:12.884,-0.00377693679183722,0,
00:00:12.888,0.00401496514678001,0,
00:00:12.892,-0.00136079837102443,0,
00:00:12.896,0.00169684027787298,0,
00:00:12.9,0.00131779769435525,0,
00:00:12.904,5.64973379368894E-05,0,
00:00:12.908,0.00127127463929355,0,
00:00:12.912,-0.00499544711783528,0,
00:00:12.916,0.00182707293424755,0,
00:00:12.92,-0.000600093102548271,0,
00:00:12.924,-0.000367224944056943,0,
00:00:12.928,0.000364620296750218,0,
00:00:12.932,0.000713108922354877,0,
00:00:12.936,0.000580865540541708,0,
00:00:12.94,0.000210098238312639,0,
00:00:12.944,-0.000129514199215919,0,
00:00:12.948,-0.00236744247376919,0,
00:00:12.952,0.00170432054437697,0,
00:00:12.956,0.00357088074088097,0,
00:00:12.96,-0.00388708640821278,0,
00:00:12.964,-0.000439130584709346,0,
00:00:12.968,0.000526121468283236,0,
00:00:12.972,0.000450640800409019,0,
00:00:12.976,0.000122348355944268,0,
00:00:12.98,-0.000109882545075379,0,
00:00:12.984,-0.000167102945852093,0,
00:00:12.988,-0.00217930320650339,0,
00:00:12.992,0.00404472649097443,0,
00:00:12.996,-0.000271951081231236,0,
00:00:13,-0.00138663302641362,0,
00:00:13.004,-0.000963548314757645,0,
00:00:13.008,-0.000165244549862109,0,
00:00:13.012,0.00246279709972441,0,
00:00:13.016,-0.00352531974203885,0,
00:00:13.02,0.00277085462585092,0,
00:00:13.024,-0.00248880055733025,0,
00:00:13.028,0.00332221831195056,0,
00:00:13.032,-0.00258494284935296,0,
00:00:13.036,0.000804456183686852,0,
00:00:13.04,0.00103279878385365,0,
00:00:13.044,0.00232546916231513,0,
00:00:13.048,-0.00239622895605862,0,
00:00:13.052,-0.00433770753443241,0,
00:00:13.056,0.00136310188099742,0,
00:00:13.06,0.00029705447377637,0,
00:00:13.064,0.00332260434515774,0,
00:00:13.068,0.00166929350234568,0,
00:00:13.072,0.00150434032548219,0,
00:00:13.076,-0.00365971541032195,0,
00:00:13.08,-0.00524705648422241,0,
00:00:13.084,0.00317694968543947,0,
00:00:13.088,0.000655321346130222,0,
00:00:13.092,-0.00398093694821,0,
00:00:13.096,0.00419411575421691,0,
00:00:13.1,0.00771452579647303,0,
00:00:13.104,-0.00342652364633977,0,
00:00:13.108,-0.00496684154495597,0,
00:00:13.112,-0.00460660131648183,0,
00:00:13.116,0.00431793509051204,0,
00:00:13.12,0.00143948115874082,0,
00:00:13.124,0.000348682282492518,0,
00:00:13.128,-2.76308164757211E-05,0,
00:00:13.132,-0.000141077922307886,0,
00:00:13.136,-0.000154822191689163,0,
00:00:13.14,-0.000124835889437236,0,
00:00:13.144,-7.7310498454608E-05,0,
00:00:13.148,-3.10033174173441E-05,0,
00:00:13.152,1.59282740241906E-06,0,
00:00:13.156,-0.00205946830101311,0,
00:00:13.16,0.00199172389693558,0,
00:00:13.164,0.00372670567594469,0,
00:00:13.168,-0.00179774349089712,0,
00:00:13.172,-0.00248934561386704,0,
00:00:13.176,-0.00121023284737021,0,
00:00:13.18,-0.00186733528971672,0,
00:00:13.184,0.00292025366798043,0,
00:00:13.188,0.00465036882087588,0,
00:00:13.192,-0.00130596244707704,0,
00:00:13.196,-0.00248195487074554,0,
00:00:13.2,-0.00357618741691113,0,
00:00:13.204,0.00183892343193293,0,
00:00:13.208,0.00235606194473803,0,
00:00:13.212,0.0010436960728839,0,
00:00:13.216,-0.000291697448119521,0,
00:00:13.22,-0.000918449542950839,0,
00:00:13.224,-0.000837721629068255,0,
00:00:13.228,-0.000390068016713485,0,
00:00:13.232,6.36696349829435E-05,0,
00:00:13.236,-0.00176146265584975,0,
00:00:13.24,0.00438278960064054,0,
00:00:13.244,-0.000131576001876965,0,
00:00:13.248,-0.00142518267966807,0,
00:00:13.252,-0.00109156128019094,0,
00:00:13.256,-0.00029114683275111,0,
00:00:13.26,0.000316244288114831,0,
00:00:13.264,0.000517611159011722,0,
00:00:13.268,0.00246953056193888,0,
