Elapsed Time,Ch1,BioRadio Event,
00:00:00,1.43851554393768,0,
00:00:00.004,-1.36889839172363,0,
00:00:00.008,-1.13585996627808,0,
00:00:00.012,-0.124662965536118,0,
00:00:00.016,0.580297589302063,0,
00:00:00.02,0.711872160434723,0,
00:00:00.024,0.443516910076141,0,
00:00:00.028,0.0595425069332123,0,
00:00:00.032,-0.212237477302551,0,
00:00:00.036,-0.289049386978149,0,
00:00:00.04,-0.20677824318409,0,
00:00:00.044,-0.0754790678620338,0,
00:00:00.048,0.0280140209943056,0,
00:00:00.052,0.0809738263487816,0,
00:00:00.056,0.0824414268136024,0,
00:00:00.06,0.0432914756238461,0,
00:00:00.064,-0.00349313858896494,0,
00:00:00.068,-0.0226672682911158,0,
00:00:00.072,-0.0252839885652065,0,
00:00:00.076,-0.0143256084993482,0,
00:00:00.08,-0.00627995748072863,0,
00:00:00.084,0.000874065677635372,0,
00:00:00.088,0.00962881091982126,0,
00:00:00.092,0.0109349237754941,0,
00:00:00.096,0.00202413043007255,0,
00:00:00.1,-0.00649891886860132,0,
00:00:00.104,-0.00144925422500819,0,
00:00:00.108,0.00914481375366449,0,
00:00:00.112,-0.00470794597640634,0,
00:00:00.116,-0.0080826748162508,0,
00:00:00.12,-0.00261515472084284,0,
00:00:00.124,0.006717583630234,0,
00:00:00.128,0.00456943782046437,0,
00:00:00.132,-0.00399420643225312,0,
00:00:00.136,-0.00269404565915465,0,
00:00:00.14,0.00452873762696981,0,
00:00:00.144,0.0022084447555244,0,
00:00:00.148,-0.00539916660636663,0,
00:00:00.152,-0.000849988602567464,0,
00:00:00.156,0.00103150389622897,0,
00:00:00.16,0.00539043080061674,0,
00:00:00.164,-0.00534263672307134,0,
00:00:00.168,-0.00334659218788147,0,
00:00:00.172,0.00291514908894897,0,
00:00:00.176,0.00516919419169426,0,
00:00:00.18,-0.00292285368777812,0,
00:00:00.184,-0.00240719667635858,0,
00:00:00.188,0.0041130967438221,0,
00:00:00.192,0.00158802641090006,0,
00:00:00.196,-0.00374536123126745,0,
00:00:00.2,-0.00498577114194632,0,
00:00:00.204,0.00153780425898731,0,
00:00:00.208,0.00504155969247222,0,
00:00:00.212,0.00201114523224533,0,
00:00:00.216,-0.007457644212991,0,
00:00:00.22,0.00136815942823887,0,
00:00:00.224,0.00499295862391591,0,
00:00:00.228,-0.000468073878437281,0,
00:00:00.232,-0.00395066943019629,0,
00:00:00.236,-0.00142812950070947,0,
00:00:00.24,0.00540297757834196,0,
00:00:00.244,0.00236509530805051,0,
00:00:00.248,-0.00362789654172957,0,
00:00:00.252,-0.00529602123424411,0,
00:00:00.256,0.0011241021566093,0,
00:00:00.26,0.00475513283163309,0,
00:00:00.264,-0.00222340016625822,0,
00:00:00.268,-0.00135651137679815,0,
00:00:00.272,0.0048889396712184,0,
00:00:00.276,0.00184392649680376,0,
00:00:00.28,-0.00599589943885803,0,
00:00:00.284,-0.00129526015371084,0,
00:00:00.288,0.000885821064002812,0,
00:00:00.292,0.00341742159798741,0,
00:00:00.296,-0.00315830227918923,0,
00:00:00.3,0.000554733444005251,0,
00:00:00.304,-0.00086838862625882,0,
00:00:00.308,0.00465720659121871,0,
00:00:00.312,0.00161021749954671,0,
00:00:00.316,-0.00810750480741262,0,
00:00:00.32,0.0007915262831375,0,
00:00:00.324,0.00474560027942061,0,
00:00:00.328,0.00170737120788544,0,
00:00:00.332,-0.00770764471963048,0,
00:00:00.336,-0.000793534563854337,0,
00:00:00.34,0.00912981014698744,0,
00:00:00.344,-0.000623078958597034,0,
00:00:00.348,-0.00316695193760097,0,
00:00:00.352,-0.00431890832260251,0,
00:00:00.356,0.00359939504414797,0,
00:00:00.36,0.000476904155220836,0,
00:00:00.364,-0.000311566895106807,0,
00:00:00.368,-0.00228309957310557,0,
00:00:00.372,0.00202366756275296,0,
00:00:00.376,0.00596788991242647,0,
00:00:00.38,-0.00570260779932141,0,
00:00:00.384,-0.00418248912319541,0,
00:00:00.388,0.00426284968852997,0,
00:00:00.392,0.00288432464003563,0,
00:00:00.396,-0.00238886312581599,0,
00:00:00.4,-0.00424368632957339,0,
00:00:00.404,-0.000521715846844018,0,
00:00:00.408,0.0065741091966629,0,
00:00:00.412,0.00104249839205295,0,
00:00:00.416,-0.00359471212141216,0,
00:00:00.42,8.06573807494715E-05,0,
00:00:00.424,0.00258435681462288,0,
00:00:00.428,0.000119526514026802,0,
00:00:00.432,-0.00605431059375405,0,
00:00:00.436,-0.0023071588948369,0,
00:00:00.44,0.00617798278108239,0,
00:00:00.444,0.00177246751263738,0,
00:00:00.448,-0.000452664942713454,0,
00:00:00.452,-0.00320559251122177,0,
00:00:00.456,0.00106806051917374,0,
00:00:00.46,0.00335268164053559,0,
00:00:00.464,-0.00169965892564505,0,
00:00:00.468,-0.00424712663516402,0,
00:00:00.472,0.00106480426620692,0,
00:00:00.476,0.00408051256090403,0,
00:00:00.48,-0.000853509700391442,0,
00:00:00.484,-0.00371978455223143,0,
00:00:00.488,0.00115649576764554,0,
00:00:00.492,0.00386330182664096,0,
00:00:00.496,-0.00116612680722028,0,
00:00:00.5,-0.0039577903226018,0,
00:00:00.504,0.00106271135155112,0,
00:00:00.508,0.00389354838989675,0,
00:00:00.512,0.00099928118288517,0,
00:00:00.516,-0.00584726687520742,0,
00:00:00.52,-0.00260832509957254,0,
00:00:00.524,0.00569570576772094,0,
00:00:00.528,0.00138540915213525,0,
00:00:00.532,-0.0026959499809891,0,
00:00:00.536,0.000877576705534011,0,
00:00:00.54,0.00294541148468852,0,
00:00:00.544,-0.00202635303139687,0,
00:00:00.548,-0.00438237283378839,0,
00:00:00.552,-0.000979894772171974,0,
00:00:00.556,0.00616660714149475,0,
00:00:00.56,0.00297117093577981,0,
00:00:00.564,-0.00546107208356261,0,
00:00:00.568,-0.0013257599202916,0,
00:00:00.572,0.000552064797375351,0,
00:00:00.576,0.0030599650926888,0,
00:00:00.58,-0.00129431742243469,0,
00:00:00.584,-0.0035289793740958,0,
00:00:00.588,0.00162821484263986,0,
00:00:00.592,0.00634340709075332,0,
00:00:00.596,-0.00505047757178545,0,
00:00:00.6,-0.00368365133181214,0,
00:00:00.604,0.00235369615256786,0,
00:00:00.608,0.00474301585927606,0,
00:00:00.612,-0.000988179817795753,0,
00:00:00.616,-0.00428154971450567,0,
00:00:00.62,0.000602459243964404,0,
00:00:00.624,0.00357045698910952,0,
00:00:00.628,-0.0011673861881718,0,
00:00:00.632,-0.00170475943014026,0,
00:00:00.636,-0.00277916924096644,0,
00:00:00.64,0.00436651520431042,0,
00:00:00.644,0.00250393291935325,0,
00:00:00.648,-0.004863191395998,0,
00:00:00.652,-0.00248782616108656,0,
00:00:00.656,0.005245097912848,0,
00:00:00.66,0.00288808019831777,0,
00:00:00.664,-0.0050506042316556,0,
00:00:00.668,-0.0029301643371582,0,
00:00:00.672,0.00279328832402825,0,
00:00:00.676,0.00678639393299818,0,
00:00:00.68,-0.00324993417598307,0,
00:00:00.684,-0.0062059061601758,0,
00:00:00.688,0.000291439471766353,0,
00:00:00.692,0.00236307689920068,0,
00:00:00.696,0.00195173011161387,0,
00:00:00.7,-0.00138491520192474,0,
00:00:00.704,0.0036821870598942,0,
00:00:00.708,0.000930331239942461,0,
00:00:00.712,-0.00414095260202885,0,
00:00:00.716,-0.00505654001608491,0,
00:00:00.72,0.00166357087437063,0,
00:00:00.724,0.0052066002972424,0,
00:00:00.728,3.85174244001973E-05,0,
00:00:00.732,-0.00339149055071175,0,
00:00:00.736,0.00098829937633127,0,
00:00:00.74,0.00138801534194499,0,
00:00:00.744,0.0025158179923892,0,
00:00:00.748,-0.00241049891337752,0,
00:00:00.752,-0.00653957296162844,0,
00:00:00.756,0.00528437551110983,0,
00:00:00.76,0.00404538586735725,0,
00:00:00.764,-0.00209398730657995,0,
00:00:00.768,-0.00466842437162995,0,
00:00:00.772,0.00091487995814532,0,
00:00:00.776,0.00414959480985999,0,
00:00:00.78,-0.00071358832065016,0,
00:00:00.784,-0.00569801544770598,0,
00:00:00.788,0.00522350799292326,0,
00:00:00.792,0.00555910961702466,0,
00:00:00.796,-0.00467349961400032,0,
00:00:00.8,-0.00667134206742048,0,
00:00:00.804,-0.00139612436760217,0,
00:00:00.808,0.00919016823172569,0,
00:00:00.812,0.000185701530426741,0,
00:00:00.816,-0.00430514756590128,0,
00:00:00.82,0.000289712799713016,0,
00:00:00.824,0.00330617860890925,0,
00:00:00.828,-0.00130576232913882,0,
00:00:00.832,-0.00381884234957397,0,
00:00:00.836,-0.000793046085163951,0,
00:00:00.84,0.00810353737324476,0,
00:00:00.844,0.000713335175532848,0,
00:00:00.848,-0.00735409092158079,0,
00:00:00.852,-0.0037055928260088,0,
00:00:00.856,0.0033694242592901,0,
00:00:00.86,0.007878752425313,0,
00:00:00.864,-0.00445265183225274,0,
00:00:00.868,-0.00390119780786335,0,
00:00:00.872,0.00385482097044587,0,
00:00:00.876,0.000181053444975987,0,
00:00:00.88,-0.00089189043501392,0,
00:00:00.884,-0.00278208684176207,0,
00:00:00.888,-0.000270523974904791,0,
00:00:00.892,0.00799973588436842,0,
00:00:00.896,0.000295035977615044,0,
00:00:00.9,-0.00982321240007877,0,
00:00:00.904,0.000160184645210393,0,
00:00:00.908,0.00514313112944365,0,
00:00:00.912,0.00251521309837699,0,
00:00:00.916,-0.00497731333598495,0,
00:00:00.92,-0.00252176891081035,0,
00:00:00.924,0.00529231829568744,0,
00:00:00.928,0.00295654218643904,0,
00:00:00.932,-0.00500886701047421,0,
00:00:00.936,-0.00292934547178447,0,
00:00:00.94,0.00484122382476926,0,
00:00:00.944,0.00270038843154907,0,
00:00:00.948,-0.00501750130206347,0,
00:00:00.952,-0.00485031632706523,0,
00:00:00.956,0.0070085353218019,0,
00:00:00.96,0.00655332952737808,0,
00:00:00.964,-0.00677034631371498,0,
00:00:00.968,-0.00528526166453958,0,
00:00:00.972,0.0016963625093922,0,
00:00:00.976,0.00704880338162184,0,
00:00:00.98,-0.00438415911048651,0,
00:00:00.984,-0.00333336670883,0,
00:00:00.988,0.00238695810548961,0,
00:00:00.992,0.00459446758031845,0,
00:00:00.996,0.00090838858159259,0,
00:00:01,-0.00637047458440065,0,
00:00:01.004,-0.0031386069022119,0,
00:00:01.008,0.00540969986468554,0,
00:00:01.012,0.00345459207892418,0,
00:00:01.016,-0.00450404221192002,0,
00:00:01.02,-0.00263949646614492,0,
00:00:01.024,0.00695518776774406,0,
00:00:01.028,-0.00147692707832903,0,
00:00:01.032,-0.00485276849940419,0,
00:00:01.036,0.000645164749585092,0,
00:00:01.04,0.00403628125786781,0,
00:00:01.044,-0.000674434239044786,0,
00:00:01.048,-0.00352009478956461,0,
00:00:01.052,0.00125637138262391,0,
00:00:01.056,0.00384604069404304,0,
00:00:01.06,0.000823010574094951,0,
00:00:01.064,-0.00395116861909628,0,
00:00:01.068,-0.00676550669595599,0,
00:00:01.072,0.00601096218451858,0,
00:00:01.076,0.00704305293038487,0,
00:00:01.08,-0.00556882144883275,0,
00:00:01.084,-0.00425437651574612,0,
00:00:01.088,0.00210961163975298,0,
00:00:01.092,0.00479648448526859,0,
00:00:01.096,0.00126837485004216,0,
00:00:01.1,-0.00817666109651327,0,
00:00:01.104,-0.00107947981450707,0,
00:00:01.108,0.00905771926045418,0,
00:00:01.112,-0.000553268881049007,0,
00:00:01.116,-0.00512893218547106,0,
00:00:01.12,-0.000182027521077543,0,
00:00:01.124,0.00329634384252131,0,
00:00:01.128,0.00107146275695413,0,
00:00:01.132,-0.00541920447722077,0,
00:00:01.136,-0.0021677955519408,0,
00:00:01.14,0.00594480242580175,0,
00:00:01.144,0.00348550570197403,0,
00:00:01.148,-0.00271614547818899,0,
00:00:01.152,-0.00704638566821814,0,
00:00:01.156,0.00496784038841724,0,
00:00:01.16,0.00396359758451581,0,
00:00:01.164,-0.00203483435325325,0,
00:00:01.168,-0.00665333215147257,0,
00:00:01.172,0.00502086523920298,0,
00:00:01.176,0.00381842278875411,0,
00:00:01.18,-0.00221204478293657,0,
00:00:01.184,-0.00675921747460961,0,
00:00:01.188,0.00293400138616562,0,
00:00:01.192,0.00792229920625687,0,
00:00:01.196,-0.000400541786802933,0,
00:00:01.2,-0.00807434786111116,0,
00:00:01.204,-0.00376202911138535,0,
00:00:01.208,0.00580848380923271,0,
00:00:01.212,0.00425885105505586,0,
00:00:01.216,-0.00385449943132699,0,
00:00:01.22,-0.00239613209851086,0,
00:00:01.224,0.00475836778059602,0,
00:00:01.228,0.0022803358733654,0,
00:00:01.232,-0.00546013237908483,0,
00:00:01.236,-0.00304261618293822,0,
00:00:01.24,0.00498155504465103,0,
00:00:01.244,0.00293241767212749,0,
00:00:01.248,-0.00275409827008843,0,
00:00:01.252,-0.00674394471570849,0,
00:00:01.256,0.00535134272649884,0,
00:00:01.26,0.00423526577651501,0,
00:00:01.264,-0.00401882035657763,0,
00:00:01.268,-0.0026543119456619,0,
00:00:01.272,0.00249812006950378,0,
00:00:01.276,0.00422784173861146,0,
00:00:01.28,-0.00163991050794721,0,
00:00:01.284,-0.00469025271013379,0,
00:00:01.288,0.000543511821888387,0,
00:00:01.292,0.00376035110093653,0,
00:00:01.296,-0.000903805019333959,0,
00:00:01.3,-0.00358266965486109,0,
00:00:01.304,0.00134813168551773,0,
00:00:01.308,0.00400611758232117,0,
00:00:01.312,0.000963151047471911,0,
00:00:01.316,-0.00595467584207654,0,
00:00:01.32,-0.00271130283363163,0,
00:00:01.324,0.00563949812203646,0,
00:00:01.328,0.00345643330365419,0,
00:00:01.332,-0.00464392220601439,0,
00:00:01.336,-0.00280588190071285,0,
00:00:01.34,0.00476739462465048,0,
00:00:01.344,0.00254148431122303,0,
00:00:01.348,-0.00515847513452172,0,
00:00:01.352,-0.00284466380253434,0,
00:00:01.356,0.00503459665924311,0,
00:00:01.36,0.00287812179885805,0,
00:00:01.364,-0.00492362538352609,0,
00:00:01.368,-0.00276943598873913,0,
00:00:01.372,0.002908582566306,0,
00:00:01.376,0.00682719936594367,0,
00:00:01.38,-0.00326965586282313,0,
00:00:01.384,-0.00832819286733866,0,
00:00:01.388,0.00222456641495228,0,
00:00:01.392,0.00605931831523776,0,
00:00:01.396,0.000153161512571387,0,
00:00:01.4,-0.0017816387116909,0,
00:00:01.404,-0.00363502977415919,0,
00:00:01.408,0.00346048432402313,0,
00:00:01.412,0.00199029105715454,0,
00:00:01.416,-0.00698193395510316,0,
00:00:01.42,-0.000250704004429281,0,
00:00:01.424,0.00929573085159063,0,
00:00:01.428,0.00132336386013776,0,
00:00:01.432,-0.00538362748920918,0,
00:00:01.436,-0.00823456328362226,0,
00:00:01.44,0.00531391333788633,0,
00:00:01.444,0.00505842920392752,0,
00:00:01.448,-0.00308378180488944,0,
00:00:01.452,-0.00208807410672307,0,
00:00:01.456,0.00466064270585775,0,
00:00:01.46,0.00201053055934608,0,
00:00:01.464,-0.00569326290860772,0,
00:00:01.468,-0.00314026558771729,0,
00:00:01.472,0.00293688918463886,0,
00:00:01.476,0.00708022061735392,0,
00:00:01.48,-0.00299230823293328,0,
00:00:01.484,-0.00815510749816895,0,
00:00:01.488,0.00226254598237574,0,
00:00:01.492,0.00600201869383454,0,
00:00:01.496,0.0021405266597867,0,
00:00:01.5,-0.00590139115229249,0,
00:00:01.504,-0.00125358626246452,0,
00:00:01.508,0.00295840250328183,0,
00:00:01.512,-0.000682096695527434,0,
00:00:01.516,-0.00497392425313592,0,
00:00:01.52,0.0060022403486073,0,
00:00:01.524,0.00392635818570852,0,
00:00:01.528,-0.000586746959015727,0,
00:00:01.532,-0.00930937752127647,0,
00:00:01.536,-0.00117639952804893,0,
00:00:01.54,0.00545690767467022,0,
00:00:01.544,0.00821359269320965,0,
00:00:01.548,-0.00537504954263568,0,
00:00:01.552,-0.00510705076158047,0,
00:00:01.556,0.000994947040453553,0,
00:00:01.56,0.006156912073493,0,
00:00:01.564,-0.00496354186907411,0,
00:00:01.568,-0.00552556151524186,0,
00:00:01.572,0.00458542769774795,0,
00:00:01.576,0.00864790752530098,0,
00:00:01.58,-0.00270398263819516,0,
00:00:01.584,-0.00677208555862308,0,
00:00:01.588,-0.00272909295745194,0,
00:00:01.592,0.00777956331148744,0,
00:00:01.596,0.00148887548130006,0,
00:00:01.6,-0.00837052334100008,0,
00:00:01.604,-0.000987237086519599,0,
00:00:01.608,0.00730765657499433,0,
00:00:01.612,0.0038144183345139,0,
00:00:01.616,-0.00531591987237334,0,
00:00:01.62,-0.0058393026702106,0,
00:00:01.624,0.0102307638153434,0,
00:00:01.628,6.45769032416865E-05,0,
00:00:01.632,-0.0101248174905777,0,
00:00:01.636,-0.0017057794611901,0,
00:00:01.64,0.00555384811013937,0,
00:00:01.644,0.0065875886939466,0,
00:00:01.648,-0.00088800088269636,0,
00:00:01.652,-0.00315439258702099,0,
00:00:01.656,-0.00455443607643247,0,
00:00:01.66,0.00114550511352718,0,
00:00:01.664,-0.0019953481387347,0,
00:00:01.668,0.0031094434671104,0,
00:00:01.672,0.0156919527798891,0,
00:00:01.676,-0.00435661058872938,0,
00:00:01.68,-0.018523333594203,0,
00:00:01.684,-0.00559592433273792,0,
00:00:01.688,0.00679933605715632,0,
00:00:01.692,0.0103145027533174,0,
00:00:01.696,0.00251438724808395,0,
00:00:01.7,-0.00363813852891326,0,
00:00:01.704,-0.00283238850533962,0,
00:00:01.708,0.0056595173664391,0,
00:00:01.712,-0.000898601021617651,0,
00:00:01.716,-0.00777407083660364,0,
00:00:01.72,-0.00324079324491322,0,
00:00:01.724,0.0062313973903656,0,
00:00:01.728,0.00238989456556737,0,
00:00:01.732,0.000209637830266729,0,
00:00:01.736,-0.00282136769965291,0,
00:00:01.74,0.00111135060433298,0,
00:00:01.744,0.00317060644738376,0,
00:00:01.748,-0.00401471182703972,0,
00:00:01.752,-0.00244330894201994,0,
00:00:01.756,0.00264806346967816,0,
00:00:01.76,0.00428977282717824,0,
00:00:01.764,-0.00370043911971152,0,
00:00:01.768,-0.00270821619778872,0,
00:00:01.772,0.00427571078762412,0,
00:00:01.776,-9.28530207602307E-05,0,
00:00:01.78,0.000682016368955374,0,
00:00:01.784,-0.00510873831808567,0,
00:00:01.788,-0.00197762320749462,0,
00:00:01.792,0.00797989219427109,0,
00:00:01.796,-0.0007049998966977,0,
00:00:01.8,-0.00456133997067809,0,
00:00:01.804,-0.00154076493345201,0,
00:00:01.808,0.00571827776730061,0,
00:00:01.812,0.0027717906050384,0,
00:00:01.816,-0.0054590362124145,0,
00:00:01.82,-0.00330708897672594,0,
00:00:01.824,0.00677170418202877,0,
00:00:01.828,-0.00128052546642721,0,
00:00:01.832,-0.00243333959951997,0,
00:00:01.836,-0.00519517483189702,0,
00:00:01.84,0.00647674268111587,0,
00:00:01.844,0.00449376506730914,0,
00:00:01.848,-0.00231669540517032,0,
00:00:01.852,-0.00727029331028461,0,
00:00:01.856,0.00241656415164471,0,
00:00:01.86,0.0055570830591023,0,
00:00:01.864,-0.000526976364199072,0,
00:00:01.868,-0.00431467872112989,0,
00:00:01.872,-0.00176193926017731,0,
00:00:01.876,0.00526925828307867,0,
00:00:01.88,0.00242893234826624,0,
00:00:01.884,-0.00761566404253244,0,
00:00:01.888,0.000887670728843659,0,
00:00:01.892,0.00252089626155794,0,
00:00:01.896,0.00347758806310594,0,
00:00:01.9,-0.0041252113878727,0,
00:00:01.904,-0.00262057431973517,0,
00:00:01.908,0.00461883563548326,0,
00:00:01.912,0.000223174472921528,0,
00:00:01.916,-0.00125386798754334,0,
00:00:01.92,-0.00524775544181466,0,
00:00:01.924,0.00565674901008606,0,
00:00:01.928,0.00363579415716231,0,
00:00:01.932,-0.00483614159747958,0,
00:00:01.936,-0.00525824725627899,0,
00:00:01.94,0.00438763573765755,0,
00:00:01.944,0.00610630121082067,0,
00:00:01.948,-0.00112618424464017,0,
00:00:01.952,-0.00735211791470647,0,
00:00:01.956,0.00159309641458094,0,
00:00:01.96,0.00474016321823001,0,
00:00:01.964,0.00117128947749734,0,
00:00:01.968,-0.00826802663505077,0,
00:00:01.972,-0.00106387655250728,0,
00:00:01.976,0.00711363088339567,0,
00:00:01.98,0.0016043676296249,0,
00:00:01.984,-0.00540752615779638,0,
00:00:01.988,-2.24489158426877E-05,0,
00:00:01.992,0.00608055386692286,0,
00:00:01.996,0.00182705349288881,0,
00:00:02,-0.00676204869523644,0,
00:00:02.004,-0.00415264349430799,0,
00:00:02.008,0.00250107934698462,0,
00:00:02.012,0.00516421254724264,0,
00:00:02.016,-0.0046899882145226,0,
00:00:02.02,-8.3141330833314E-06,0,
00:00:02.024,0.00610492611303926,0,
00:00:02.028,0.00194361142348498,0,
00:00:02.032,-0.00665160641074181,0,
00:00:02.036,-0.00619966024532914,0,
00:00:02.04,0.00441989907994866,0,
00:00:02.044,0.00878438632935286,0,
00:00:02.048,-0.00242470786906779,0,
00:00:02.052,-0.0064921360462904,0,
00:00:02.056,-0.000465646560769528,0,
00:00:02.06,0.00379781308583915,0,
00:00:02.064,-0.000274937367066741,0,
00:00:02.068,-0.00499161006882787,0,
00:00:02.072,0.00161758402828127,0,
00:00:02.076,0.00764014711603522,0,
00:00:02.08,0.00257402495481074,0,
00:00:02.084,-0.00895171333104372,0,
00:00:02.088,-0.00278203585185111,0,
00:00:02.092,0.00556905101984739,0,
00:00:02.096,0.00296106142923236,0,
00:00:02.1,-0.00518958363682032,0,
00:00:02.104,-0.00305704912170768,0,
00:00:02.108,0.00280379340983927,0,
00:00:02.112,0.00484747346490622,0,
00:00:02.116,-0.00109459576196969,0,
00:00:02.12,-0.00857381802052259,0,
00:00:02.124,0.00655911723151803,0,
00:00:02.128,0.00697422446683049,0,
00:00:02.132,-0.00435888301581144,0,
00:00:02.136,-0.0092852795496583,0,
00:00:02.14,0.001904530916363,0,
00:00:02.144,0.00837067328393459,0,
00:00:02.148,-0.00135560741182417,0,
00:00:02.152,-0.00510203232988715,0,
00:00:02.156,-0.00165547942742705,0,
00:00:02.16,0.00591861689463258,0,
00:00:02.164,0.000980277312919497,0,
00:00:02.168,-0.00328896380960941,0,
00:00:02.172,0.000457959773484617,0,
00:00:02.176,0.00283173006027937,0,
00:00:02.18,0.000178757312824018,0,
00:00:02.184,-0.0082094157114625,0,
00:00:02.188,-0.000459544564364478,0,
00:00:02.192,0.00771829904988408,0,
00:00:02.196,0.00398225383833051,0,
00:00:02.2,-0.00533676892518997,0,
00:00:02.204,-0.00386353023350239,0,
00:00:02.208,0.00193889311049134,0,
00:00:02.212,0.00638732593506575,0,
00:00:02.216,-0.00526216998696327,0,
00:00:02.22,-0.00391102908179164,0,
00:00:02.224,0.000195501721464098,0,
00:00:02.228,0.00887266267091036,0,
00:00:02.232,-0.00323459343053401,0,
00:00:02.236,-0.00361727387644351,0,
00:00:02.24,0.00131284527014941,0,
00:00:02.244,0.00565223535522819,0,
00:00:02.248,-0.00569901522248983,0,
00:00:02.252,-0.00397425377741456,0,
00:00:02.256,0.000377842778107151,0,
00:00:02.26,0.00911760702729225,0,
00:00:02.264,-0.000984849059022963,0,
00:00:02.268,-0.00761216739192605,0,
00:00:02.272,-0.000467278528958559,0,
00:00:02.276,0.00901583209633827,0,
00:00:02.28,-0.00102822540793568,0,
00:00:02.284,-0.00562000600621104,0,
00:00:02.288,-0.00250234152190387,0,
00:00:02.292,0.00530910724774003,0,
00:00:02.296,0.00291888602077961,0,
00:00:02.3,-0.0050170929171145,0,
00:00:02.304,-0.0049420427531004,0,
00:00:02.308,0.00692924112081528,0,
00:00:02.312,0.00445561157539487,0,
00:00:02.316,-0.00476574245840311,0,
00:00:02.32,-0.00359279848635197,0,
00:00:02.324,0.00399180827662349,0,
00:00:02.328,0.0021752193570137,0,
00:00:02.332,-0.00300416024401784,0,
00:00:02.336,-0.00656354241073132,0,
00:00:02.34,0.0036435266956687,0,
00:00:02.344,0.00653611123561859,0,
00:00:02.348,-0.000137825903948396,0,
00:00:02.352,-0.00445374567061663,0,
00:00:02.356,-0.00215907185338438,0,
00:00:02.36,0.00696325348690152,0,
00:00:02.364,-0.00183283851947635,0,
00:00:02.368,-0.00937895104289055,0,
00:00:02.372,0.00442699622362852,0,
00:00:02.376,0.0115365637466311,0,
00:00:02.38,-0.00407393695786595,0,
00:00:02.384,-0.0103635648265481,0,
00:00:02.388,-0.00113007635809481,0,
00:00:02.392,0.0099900895729661,0,
00:00:02.396,0.000442138669313863,0,
00:00:02.4,-0.00455878535285592,0,
00:00:02.404,-0.0021870625205338,0,
00:00:02.408,0.000871002674102783,0,
00:00:02.412,0.00841440167278051,0,
00:00:02.416,-0.0041611441411078,0,
00:00:02.42,-0.00436967005953193,0,
00:00:02.424,0.00103063590358943,0,
00:00:02.428,0.00579528557136655,0,
00:00:02.432,-0.00742869917303324,0,
00:00:02.436,-0.00167519284877926,0,
00:00:02.44,0.00427046418190002,0,
00:00:02.444,0.0031815255060792,0,
00:00:02.448,0.00454655895009637,0,
00:00:02.452,-0.00959080643951893,0,
00:00:02.456,-0.00325895333662629,0,
00:00:02.46,0.00582393165677786,0,
00:00:02.464,0.00360174151137471,0,
00:00:02.468,-0.00463565671816468,0,
00:00:02.472,-0.00284015387296677,0,
00:00:02.476,0.00477137695997953,0,
00:00:02.48,-0.00362724345177412,0,
00:00:02.484,-0.00329924561083317,0,
00:00:02.488,0.0164844375103712,0,
00:00:02.492,0.00108848523814231,0,
00:00:02.496,-0.00947717949748039,0,
00:00:02.5,-0.0143125727772713,0,
00:00:02.504,-0.00280297733843327,0,
00:00:02.508,0.01306043099612,0,
00:00:02.512,0.0136615177616477,0,
00:00:02.516,-0.00883348286151886,0,
00:00:02.52,-0.00568280927836895,0,
00:00:02.524,0.00114357692655176,0,
00:00:02.528,0.00409838510677218,0,
00:00:02.532,-0.00114593002945185,0,
00:00:02.536,-0.00617678835988045,0,
00:00:02.54,0.00496888859197497,0,
00:00:02.544,-0.000639531819615513,0,
00:00:02.548,0.00353830796666443,0,
00:00:02.552,-0.00347928539849818,0,
00:00:02.556,-0.000267998548224568,0,
00:00:02.56,0.000408739520935342,0,
00:00:02.564,0.0022941567003727,0,
00:00:02.568,-0.00618390971794724,0,
00:00:02.572,6.89093867549673E-05,0,
00:00:02.576,0.00912024732679129,0,
00:00:02.58,-0.00319192092865705,0,
00:00:02.584,-0.00378561858087778,0,
00:00:02.588,0.00109980534762144,0,
00:00:02.592,0.00345090706832707,0,
00:00:02.596,-0.00165005039889365,0,
00:00:02.6,-0.00422520190477371,0,
00:00:02.604,0.00109102146234363,0,
00:00:02.608,-3.1843752367422E-05,0,
00:00:02.612,0.00521555636078119,0,
00:00:02.616,0.00384908588603139,0,
00:00:02.62,-0.0101931914687157,0,
00:00:02.624,-0.00312602170743048,0,
00:00:02.628,0.00846789963543415,0,
00:00:02.632,-0.00406136689707637,0,
00:00:02.636,-0.000109658292785753,0,
00:00:02.64,0.00391390500590205,0,
00:00:02.644,0.00392635585740209,0,
00:00:02.648,-0.00286840437911451,0,
00:00:02.652,-0.00587873579934239,0,
00:00:02.656,-5.06745600432623E-05,0,
00:00:02.66,0.00381063064560294,0,
00:00:02.664,-0.000474596279673278,0,
00:00:02.668,-0.00518027972429991,0,
00:00:02.672,0.00363000808283687,0,
00:00:02.676,0.00780040724202991,0,
00:00:02.68,-0.00300126546062529,0,
00:00:02.684,-0.00868892949074507,0,
00:00:02.688,0.00165779632516205,0,
00:00:02.692,0.00564459571614861,0,
00:00:02.696,0.00418147863820195,0,
00:00:02.7,-0.00976842641830444,0,
00:00:02.704,-0.00898226536810398,0,
00:00:02.708,0.0145752727985382,0,
00:00:02.712,0.00914457719773054,0,
00:00:02.716,-0.00555147416889668,0,
00:00:02.72,-0.0114753367379308,0,
00:00:02.724,0.000257524981861934,0,
00:00:02.728,0.00573586439713836,0,
00:00:02.732,-0.00112429074943066,0,
00:00:02.736,-0.000775746710132807,0,
00:00:02.74,0.000784166099037975,0,
00:00:02.744,0.00970316864550114,0,
00:00:02.748,-0.00486085098236799,0,
00:00:02.752,-0.0105061484500766,0,
00:00:02.756,-0.000927646993659437,0,
00:00:02.76,0.00614150194451213,0,
00:00:02.764,0.00670839846134186,0,
00:00:02.768,-0.00313959154300392,0,
00:00:02.772,-0.00348014663904905,0,
00:00:02.776,0.0030939425341785,0,
00:00:02.78,0.00110427220351994,0,
00:00:02.784,-0.0078217564150691,0,
00:00:02.788,-0.000646327156573534,0,
00:00:02.792,0.00938712060451508,0,
00:00:02.796,-0.000376998883439228,0,
00:00:02.8,-0.00508236605674028,0,
00:00:02.804,-0.00228637456893921,0,
00:00:02.808,0.00314614991657436,0,
00:00:02.812,0.00465278653427958,0,
00:00:02.816,-0.00568661047145724,0,
00:00:02.82,-0.000848876195959747,0,
00:00:02.824,0.00365780433639884,0,
00:00:02.828,0.00399396242573857,0,
00:00:02.832,-0.00262261717580259,0,
00:00:02.836,-0.00767860608175397,0,
00:00:02.84,0.00419953418895602,0,
00:00:02.844,0.00356044434010983,0,
00:00:02.848,-0.00402836687862873,0,
00:00:02.852,-0.00220913486555219,0,
00:00:02.856,0.00305126514285803,0,
00:00:02.86,0.00254659191705287,0,
00:00:02.864,0.000474372209282592,0,
00:00:02.868,-0.00311602256260812,0,
00:00:02.872,-0.00151421455666423,0,
00:00:02.876,0.00474894745275378,0,
00:00:02.88,-0.000362887280061841,0,
00:00:02.884,-0.00403700256720185,0,
00:00:02.888,-0.00161007605493069,0,
00:00:02.892,0.00322794006206095,0,
00:00:02.896,0.00646658428013325,0,
00:00:02.9,-0.00795770715922117,0,
00:00:02.904,-0.00471510645002127,0,
00:00:02.908,0.00755686964839697,0,
00:00:02.912,0.00463103642687202,0,
00:00:02.916,-0.00914913415908813,0,
00:00:02.92,-0.00205471296794713,0,
00:00:02.924,0.00696717668324709,0,
00:00:02.928,0.00821162387728691,0,
00:00:02.932,-0.00886900257319212,0,
00:00:02.936,-0.00681150890886784,0,
00:00:02.94,0.00788980256766081,0,
00:00:02.944,-7.18028240953572E-05,0,
00:00:02.948,-0.00638544792309403,0,
00:00:02.952,0.000349907844793051,0,
00:00:02.956,0.00515492027625442,0,
00:00:02.96,0.00492808315902948,0,
00:00:02.964,-0.00243653589859605,0,
00:00:02.968,-0.00800434127449989,0,
00:00:02.972,0.00164754991419613,0,
00:00:02.976,0.00725861871615052,0,
00:00:02.98,-0.00448688818141818,0,
00:00:02.984,-0.00568615412339568,0,
00:00:02.988,0.0020788807887584,0,
00:00:02.992,0.0102645056322217,0,
00:00:02.996,0.000883991888258606,0,
00:00:03,-0.012643120251596,0,
00:00:03.004,-0.00108659651596099,0,
00:00:03.008,0.0100212739780545,0,
00:00:03.012,0.00214101700112224,0,
00:00:03.016,-0.0070293927565217,0,
00:00:03.02,-0.00413079792633653,0,
00:00:03.024,0.00276495842263103,0,
00:00:03.028,0.00748976320028305,0,
00:00:03.032,-0.00451161386445165,0,
00:00:03.036,-0.0037225061096251,0,
00:00:03.04,-4.68778998765629E-05,0,
00:00:03.044,0.00847105029970407,0,
00:00:03.048,-0.00356216984800994,0,
00:00:03.052,-0.00583884725347161,0,
00:00:03.056,0.00538630969822407,0,
00:00:03.06,0.00335407792590559,0,
00:00:03.064,-0.00299787102267146,0,
00:00:03.068,-0.00733498949557543,0,
00:00:03.072,0.00279047200456262,0,
00:00:03.076,0.0060592470690608,0,
00:00:03.08,0.00192785181570798,0,
00:00:03.084,-0.00821313913911581,0,
00:00:03.088,-0.00147043750621378,0,
00:00:03.092,0.00867378897964954,0,
00:00:03.096,0.00134074699599296,0,
00:00:03.1,-0.00707055861130357,0,
00:00:03.104,-0.00374497845768929,0,
00:00:03.108,0.00525814294815063,0,
00:00:03.112,0.00365624320693314,0,
00:00:03.116,-0.00419410737231374,0,
00:00:03.12,-0.00241476274095476,0,
00:00:03.124,0.00702243484556675,0,
00:00:03.128,-0.00153713789768517,0,
00:00:03.132,-0.00288915052078664,0,
00:00:03.136,-0.00557755120098591,0,
00:00:03.14,0.00422341097146273,0,
00:00:03.144,0.00648679304867983,0,
00:00:03.148,-0.000550537894014269,0,
00:00:03.152,-0.00280864001251757,0,
00:00:03.156,-0.00644718715921044,0,
00:00:03.16,0.00728781940415502,0,
00:00:03.164,-0.000231787082157098,0,
00:00:03.168,-0.00404162704944611,0,
00:00:03.172,-0.00130069523584098,0,
00:00:03.176,0.00571422930806875,0,
00:00:03.18,0.00266567221842706,0,
00:00:03.184,-0.00554954865947366,0,
00:00:03.188,-0.00540760671719909,0,
00:00:03.192,0.00670477980747819,0,
00:00:03.196,0.00654580444097519,0,
00:00:03.2,-0.00451651401817799,0,
00:00:03.204,-0.0111978501081467,0,
00:00:03.208,0.00415010144934058,0,
00:00:03.212,0.0101987700909376,0,
00:00:03.216,-0.00114673632197082,0,
00:00:03.22,-0.00603227224200964,0,
00:00:03.224,-0.00281099602580071,0,
00:00:03.228,0.00518766930326819,0,
00:00:03.232,0.000855860067531466,0,
00:00:03.236,-0.00505497818812728,0,
00:00:03.24,-0.00127436884213239,0,
00:00:03.244,0.0108378799632192,0,
00:00:03.248,-0.000278344377875328,0,
00:00:03.252,-0.00633222609758377,0,
00:00:03.256,-0.00381044880487025,0,
00:00:03.26,0.00636393204331398,0,
00:00:03.264,0.000605482491664588,0,
00:00:03.268,-0.00847678817808628,0,
00:00:03.272,-0.000543142145033926,0,
00:00:03.276,0.00790826510637999,0,
00:00:03.28,0.0042599537409842,0,
00:00:03.284,-0.00307222874835134,0,
00:00:03.288,-0.00787979550659657,0,
00:00:03.292,0.00218814495019615,0,
00:00:03.296,0.00772717269137502,0,
00:00:03.3,-0.00434160651639104,0,
00:00:03.304,-0.00376917305402458,0,
00:00:03.308,0.0018819069955498,0,
00:00:03.312,0.0043065520003438,0,
00:00:03.316,-0.00324933626689017,0,
00:00:03.32,-0.00223996373824775,0,
00:00:03.324,0.00244227889925241,0,
00:00:03.328,0.0039430046454072,0,
00:00:03.332,-0.00189764576498419,0,
00:00:03.336,-0.00479184137657285,0,
00:00:03.34,0.000594596553128213,0,
00:00:03.344,0.0038879425264895,0,
00:00:03.348,-0.000782082905061543,0,
00:00:03.352,-0.0055907629430294,0,
00:00:03.356,0.00333102350123227,0,
00:00:03.36,0.00561743974685669,0,
00:00:03.364,0.00110025238245726,0,
00:00:03.368,-0.00890140701085329,0,
00:00:03.372,-0.00177288975100964,0,
00:00:03.376,0.00665674032643437,0,
00:00:03.38,0.00356387719511986,0,
00:00:03.384,-0.00517509737983346,0,
00:00:03.388,-0.00341946701519191,0,
00:00:03.392,0.00236317794770002,0,
00:00:03.396,0.00454437034204602,0,
00:00:03.4,-0.00118942954577506,0,
00:00:03.404,-0.0064310752786696,0,
00:00:03.408,0.00264070415869355,0,
00:00:03.412,0.00742168538272381,0,
00:00:03.416,-0.00491527421399951,0,
00:00:03.42,-0.0062940763309598,0,
00:00:03.424,0.00369520112872124,0,
00:00:03.428,0.0101868119090796,0,
00:00:03.432,-0.00682288408279419,0,
00:00:03.436,-0.00826000608503819,0,
00:00:03.44,0.00313051836565137,0,
00:00:03.444,0.00871845614165068,0,
00:00:03.448,0.000301240390399471,0,
00:00:03.452,-0.0098275626078248,0,
00:00:03.456,-0.00182143086567521,0,
00:00:03.46,0.00930534582585096,0,
00:00:03.464,0.00223188335075974,0,
00:00:03.468,-0.00647039525210857,0,
00:00:03.472,-0.00569229340180755,0,
00:00:03.476,0.0070053362287581,0,
00:00:03.48,0.00702240923419595,0,
00:00:03.484,-0.00419529294595122,0,
00:00:03.488,-0.0111450096592307,0,
00:00:03.492,0.00400005467236042,0,
00:00:03.496,0.0120584517717361,0,
00:00:03.5,-0.00536509370431304,0,
00:00:03.504,-0.00784373097121716,0,
00:00:03.508,0.000646799278911203,0,
00:00:03.512,0.0120614236220717,0,
00:00:03.516,-0.00267327600158751,0,
00:00:03.52,-0.00954529363662004,0,
00:00:03.524,0.000950579007621855,0,
00:00:03.528,0.00754449283704162,0,
00:00:03.532,0.000359397556167096,0,
00:00:03.536,-0.00908266939222813,0,
00:00:03.54,-0.00310998829081655,0,
00:00:03.544,0.0137971499934793,0,
00:00:03.548,0.00192661641631275,0,
00:00:03.552,-0.00817183125764132,0,
00:00:03.556,-0.00700680445879698,0,
00:00:03.56,0.00869182217866182,0,
00:00:03.564,0.00330385216511786,0,
00:00:03.568,-0.00534409238025546,0,
00:00:03.572,-0.00515674939379096,0,
00:00:03.576,0.0069474745541811,0,
00:00:03.58,0.00873341504484415,0,
00:00:03.584,-0.00861630961298943,0,
00:00:03.588,-0.011013419367373,0,
00:00:03.592,0.00337964901700616,0,
00:00:03.596,0.0151638872921467,0,
00:00:03.6,0.000748063495848328,0,
00:00:03.604,-0.011922774836421,0,
00:00:03.608,-0.00400162767618895,0,
00:00:03.612,0.00819924660027027,0,
00:00:03.616,0.00228339480236173,0,
00:00:03.62,-0.00783343613147736,0,
00:00:03.624,-0.000854458950925618,0,
00:00:03.628,0.00923261884599924,0,
00:00:03.632,0.0016012272099033,0,
00:00:03.636,-0.00713426992297173,0,
00:00:03.64,-0.00815065484493971,0,
00:00:03.644,0.0110116023570299,0,
00:00:03.648,0.00894130393862724,0,
00:00:03.652,-0.0115552041679621,0,
00:00:03.656,-0.00761480676010251,0,
00:00:03.66,0.0070785372518003,0,
00:00:03.664,0.00792693253606558,0,
00:00:03.668,-0.00538775371387601,0,
00:00:03.672,-0.00871580466628075,0,
00:00:03.676,0.00564303947612643,0,
00:00:03.68,0.0119735011830926,0,
00:00:03.684,-0.00443162070587277,0,
00:00:03.688,-0.0131126111373305,0,
00:00:03.692,0.00238243583589792,0,
00:00:03.696,0.0115319536998868,0,
00:00:03.7,-0.00289689213968813,0,
00:00:03.704,-0.0111278975382447,0,
00:00:03.708,0.00162936619017273,0,
00:00:03.712,0.0138202691450715,0,
00:00:03.716,0.000376740004867315,0,
00:00:03.72,-0.0115631530061364,0,
00:00:03.724,-0.00547768315300345,0,
00:00:03.728,0.0127028655260801,0,
00:00:03.732,0.0041785417124629,0,
00:00:03.736,-0.0113726267591119,0,
00:00:03.74,-0.00787639617919922,0,
00:00:03.744,0.0126360487192869,0,
00:00:03.748,0.0081080412492156,0,
00:00:03.752,-0.00717811519280076,0,
00:00:03.756,-0.0104096513241529,0,
00:00:03.76,0.00488072540611029,0,
00:00:03.764,0.0141827641054988,0,
00:00:03.768,-0.0058190762065351,0,
00:00:03.772,-0.0141697349026799,0,
00:00:03.776,0.00252564251422882,0,
00:00:03.78,0.0123957749456167,0,
00:00:03.784,-0.00203563598915935,0,
00:00:03.788,-0.0107034249231219,0,
00:00:03.792,0.00364541565068066,0,
00:00:03.796,0.0115009397268295,0,
00:00:03.8,-0.0016412406694144,0,
00:00:03.804,-0.0140550835058093,0,
00:00:03.808,-0.00271832477301359,0,
00:00:03.812,0.0154438465833664,0,
00:00:03.816,0.00510272942483425,0,
00:00:03.82,-0.0141164343804121,0,
00:00:03.824,-0.00511453300714493,0,
00:00:03.828,0.0133302267640829,0,
00:00:03.832,0.00425045052543283,0,
00:00:03.836,-0.0117604341357946,0,
00:00:03.84,-0.00836016610264778,0,
00:00:03.844,0.0123330075293779,0,
00:00:03.848,0.00806538853794336,0,
00:00:03.852,-0.00703480141237378,0,
00:00:03.856,-0.0102109396830201,0,
00:00:03.86,0.0071061234921217,0,
00:00:03.864,0.00811412557959557,0,
00:00:03.868,-0.00353012396954,0,
00:00:03.872,-0.0111193098127842,0,
00:00:03.876,0.00366853037849069,0,
00:00:03.88,0.0117087224498391,0,
00:00:03.884,-0.00346258259378374,0,
00:00:03.888,-0.0139441918581724,0,
00:00:03.892,0.00517444033175707,0,
00:00:03.896,0.0133484164252877,0,
00:00:03.9,-0.000945038860663772,0,
00:00:03.904,-0.0144085269421339,0,
00:00:03.908,-0.00140459439717233,0,
00:00:03.912,0.0128599712625146,0,
00:00:03.916,0.00117365783080459,0,
00:00:03.92,-0.010103982873261,0,
00:00:03.924,-0.00430834107100964,0,
00:00:03.928,0.0110848750919104,0,
00:00:03.932,0.00597469555214047,0,
00:00:03.936,-0.012293728068471,0,
00:00:03.94,-0.00411236518993974,0,
00:00:03.944,0.0112065020948648,0,
00:00:03.948,0.0055931219831109,0,
00:00:03.952,-0.00663032522425056,0,
00:00:03.956,-0.0124971438199282,0,
00:00:03.96,0.00611939514055848,0,
00:00:03.964,0.00886986125260592,0,
00:00:03.968,-0.00200681458227336,0,
00:00:03.972,-0.0119376610964537,0,
00:00:03.976,0.00613520527258515,0,
00:00:03.98,0.0131337167695165,0,
00:00:03.984,-0.00385183817707002,0,
00:00:03.988,-0.0132525097578764,0,
00:00:03.992,-0.000204756783205085,0,
00:00:03.996,0.0150940120220184,0,
00:00:04,-0.00140004383865744,0,
00:00:04.004,-0.0145524302497506,0,
00:00:04.008,-0.000862963206600398,0,
00:00:04.012,0.0115728294476867,0,
00:00:04.016,0.00578995421528816,0,
00:00:04.02,-0.0102892816066742,0,
00:00:04.024,-0.00596544845029712,0,
00:00:04.028,0.00973743200302124,0,
00:00:04.032,0.00551377376541495,0,
00:00:04.036,-0.00787680223584175,0,
00:00:04.04,-0.00750660244375467,0,
00:00:04.044,0.00631442107260227,0,
00:00:04.048,0.00741611979901791,0,
00:00:04.052,-0.00542647205293179,0,
00:00:04.056,-0.00846643187105656,0,
00:00:04.06,0.00800188444554806,0,
00:00:04.064,0.0101556852459908,0,
00:00:04.068,-0.00814793631434441,0,
00:00:04.072,-0.011412687599659,0,
00:00:04.076,0.00474892137572169,0,
00:00:04.08,0.0126559128984809,0,
00:00:04.084,-0.00313368369825184,0,
00:00:04.088,-0.00997946597635746,0,
00:00:04.092,-0.00124160316772759,0,
00:00:04.096,0.0117182862013578,0,
00:00:04.1,0.000212738319532946,0,
00:00:04.104,-0.0125010581687093,0,
00:00:04.108,-0.00213611265644431,0,
00:00:04.112,0.0151962721720338,0,
00:00:04.116,0.00449508847668767,0,
00:00:04.12,-0.0125784538686275,0,
00:00:04.124,-0.00941849499940872,0,
00:00:04.128,0.0136932199820876,0,
00:00:04.132,0.00590125191956759,0,
00:00:04.136,-0.0105418311432004,0,
00:00:04.14,-0.00805363897234201,0,
00:00:04.144,0.011960344389081,0,
00:00:04.148,0.00954935606569052,0,
00:00:04.152,-0.0115324333310127,0,
00:00:04.156,-0.0100342854857445,0,
00:00:04.16,0.00865872297435999,0,
00:00:04.164,0.0114061255007982,0,
00:00:04.168,-0.00721900910139084,0,
00:00:04.172,-0.0110925296321511,0,
00:00:04.176,0.00666152918711305,0,
00:00:04.18,0.0103188576176763,0,
00:00:04.184,-0.00301220780238509,0,
00:00:04.188,-0.0143508380278945,0,
00:00:04.192,-4.54109976999462E-05,0,
00:00:04.196,0.0143193630501628,0,
00:00:04.2,0.00197708932682872,0,
00:00:04.204,-0.012166022323072,0,
00:00:04.208,-0.000745932571589947,0,
00:00:04.212,0.0122374938800931,0,
00:00:04.216,5.53009449504316E-05,0,
00:00:04.22,-0.0110282804816961,0,
00:00:04.224,-0.00471567828208208,0,
00:00:04.228,0.0111597673967481,0,
00:00:04.232,0.0063023897819221,0,
00:00:04.236,-0.00988163985311985,0,
00:00:04.24,-0.00796588230878115,0,
00:00:04.244,0.0136474277824163,0,
00:00:04.248,0.00500415684655309,0,
00:00:04.252,-0.00943785160779953,0,
00:00:04.256,-0.0105944471433759,0,
00:00:04.26,0.0102539183571935,0,
00:00:04.264,0.00756391370669007,0,
00:00:04.268,-0.00421103509142995,0,
00:00:04.272,-0.0131388111039996,0,
00:00:04.276,0.0082439947873354,0,
00:00:04.28,0.0118855694308877,0,
00:00:04.284,-0.00471471017226577,0,
00:00:04.288,-0.0129888029769063,0,
00:00:04.292,0.00274613732472062,0,
00:00:04.296,0.0118390088900924,0,
00:00:04.3,-0.000727853388525546,0,
00:00:04.304,-0.0132094463333488,0,
00:00:04.308,-0.000209674064535648,0,
00:00:04.312,0.0134678855538368,0,
00:00:04.316,0.00112772884313017,0,
00:00:04.32,-0.0105406539514661,0,
00:00:04.324,-0.00479991594329476,0,
00:00:04.328,0.010766202583909,0,
00:00:04.332,0.00589168351143599,0,
00:00:04.336,-0.0101281898096204,0,
00:00:04.34,-0.00593554880470037,0,
00:00:04.344,0.00968779623508453,0,
00:00:04.348,0.00546968029811978,0,
00:00:04.352,-0.00787352304905653,0,
00:00:04.356,-0.00953722838312387,0,
00:00:04.36,0.00834823213517666,0,
00:00:04.364,0.00910317897796631,0,
00:00:04.368,-0.00523004774004221,0,
00:00:04.372,-0.00931254960596561,0,
00:00:04.376,0.00695913890376687,0,
00:00:04.38,0.00950963422656059,0,
00:00:04.384,-0.00616290979087353,0,
00:00:04.388,-0.0110127124935389,0,
00:00:04.392,-0.000531730416696519,0,
00:00:04.396,0.013119519688189,0,
00:00:04.4,-0.000709757790900767,0,
00:00:04.404,-0.00797685515135527,0,
00:00:04.408,-0.00262149213813245,0,
00:00:04.412,0.0132662169635296,0,
00:00:04.416,0.00302114989608526,0,
00:00:04.42,-0.013018443249166,0,
00:00:04.424,-0.00697554741054773,0,
00:00:04.428,0.0123812519013882,0,
00:00:04.432,0.00479160016402602,0,
00:00:04.436,-0.0105048539116979,0,
00:00:04.44,-0.0072823790833354,0,
00:00:04.444,0.0107008293271065,0,
00:00:04.448,0.0119512677192688,0,
00:00:04.452,-0.00784557498991489,0,
00:00:04.456,-0.012144566513598,0,
00:00:04.46,0.00581817654892802,0,
00:00:04.464,0.00996693037450314,0,
00:00:04.468,-0.00499624805524945,0,
00:00:04.472,-0.0120607614517212,0,
00:00:04.476,0.00398387853056192,0,
00:00:04.48,0.0126974992454052,0,
00:00:04.484,-0.00256154942326248,0,
00:00:04.488,-0.0135489236563444,0,
00:00:04.492,0.00505672954022884,0,
00:00:04.496,0.0129541009664536,0,
00:00:04.5,-0.00134533108212054,0,
00:00:04.504,-0.0146463885903358,0,
00:00:04.508,-0.00144760485272855,0,
00:00:04.512,0.0108728976920247,0,
00:00:04.516,0.00535228149965405,0,
00:00:04.52,-0.0103417597711086,0,
00:00:04.524,-0.00573751237243414,0,
00:00:04.528,0.0100507028400898,0,
00:00:04.532,0.00367645872756839,0,
00:00:04.536,-0.00580473057925701,0,
00:00:04.54,-0.00796625856310129,0,
00:00:04.544,0.0104566104710102,0,
00:00:04.548,0.00823185872286558,0,
00:00:04.552,-0.00994126684963703,0,
00:00:04.556,-0.0117638288065791,0,
00:00:04.56,0.00757983746007085,0,
00:00:04.564,0.0117242923006415,0,
00:00:04.568,-0.00406721327453852,0,
00:00:04.572,-0.0120661556720734,0,
00:00:04.576,0.00132901850156486,0,
00:00:04.58,0.0139920767396688,0,
00:00:04.584,0.00070182210765779,0,
00:00:04.588,-0.0134009215980768,0,
00:00:04.592,0.00071198825025931,0,
00:00:04.596,0.0103162471204996,0,
00:00:04.6,-0.00321209500543773,0,
00:00:04.604,-0.0108035458251834,0,
00:00:04.608,0.0021430510096252,0,
00:00:04.612,0.0141885699704289,0,
00:00:04.616,0.00255613983608782,0,
00:00:04.62,-0.0136453351005912,0,
00:00:04.624,-0.00938471220433712,0,
00:00:04.628,0.0143429720774293,0,
00:00:04.632,0.0065905312076211,0,
00:00:04.636,-0.00808391813188791,0,
00:00:04.64,-0.0100117633119226,0,
00:00:04.644,0.00802770256996155,0,
00:00:04.648,0.0110841616988182,0,
00:00:04.652,-0.00715279439464211,0,
00:00:04.656,-0.0108606088906527,0,
00:00:04.66,0.00684581696987152,0,
00:00:04.664,0.0103634092956781,0,
00:00:04.668,-0.00516340276226401,0,
00:00:04.672,-0.0124983945861459,0,
00:00:04.676,0.0035701971501112,0,
00:00:04.68,0.0124731454998255,0,
00:00:04.684,-0.00257961358875036,0,
00:00:04.688,-0.011362986639142,0,
00:00:04.692,0.0011434726184234,0,
00:00:04.696,0.0133822653442621,0,
00:00:04.7,0.000148724124301225,0,
00:00:04.704,-0.0136485155671835,0,
00:00:04.708,-0.00130498304497451,0,
00:00:04.712,0.0104398038238287,0,
00:00:04.716,0.00478649139404297,0,
00:00:04.72,-0.0107228616252542,0,
00:00:04.724,-0.00583374639973044,0,
00:00:04.728,0.0101698180660605,0,
00:00:04.732,0.00594979198649526,0,
00:00:04.736,-0.00761988526210189,0,
00:00:04.74,-0.00953819323331118,0,
00:00:04.744,0.0102670760825276,0,
00:00:04.748,0.00694340048357844,0,
00:00:04.752,-0.00491926120594144,0,
00:00:04.756,-0.0114996982738376,0,
00:00:04.76,0.00619135890156031,0,
00:00:04.764,0.00834119133651257,0,
00:00:04.768,-0.00059137522475794,0,
00:00:04.772,-0.012291181832552,0,
00:00:04.776,0.00238099019043148,0,
00:00:04.78,0.0114233829081059,0,
00:00:04.784,-0.000903813051991165,0,
00:00:04.788,-0.0131819574162364,0,
00:00:04.792,-0.000106403953395784,0,
00:00:04.796,0.0135458456352353,0,
00:00:04.8,0.00114189996384084,0,
00:00:04.804,-0.010578028857708,0,
00:00:04.808,-0.00485517457127571,0,
00:00:04.812,0.0107226707041264,0,
00:00:04.816,0.00587317673489451,0,
00:00:04.82,-0.0101242372766137,0,
00:00:04.824,-0.00592015031725168,0,
00:00:04.828,0.00970330834388733,0,
00:00:04.832,0.00755440630018711,0,
00:00:04.836,-0.0119233438745141,0,
00:00:04.84,-0.00713191041722894,0,
00:00:04.844,0.0078328475356102,0,
00:00:04.848,0.0105530256405473,0,
00:00:04.852,-0.00719877937808633,0,
00:00:04.856,-0.0105082485824823,0,
00:00:04.86,0.00518658058717847,0,
00:00:04.864,0.0125769656151533,0,
00:00:04.868,-0.00351879023946822,0,
00:00:04.872,-0.0124753471463919,0,
00:00:04.876,0.00253884703852236,0,
00:00:04.88,0.0113134132698178,0,
00:00:04.884,-0.00117842713370919,0,
00:00:04.888,-0.0133941704407334,0,
00:00:04.892,-0.00221793167293072,0,
00:00:04.896,0.0177141856402159,0,
00:00:04.9,0.000984726939350367,0,
00:00:04.904,-0.0139740314334631,0,
00:00:04.908,-0.00175518554169685,0,
00:00:04.912,0.0122766131535172,0,
00:00:04.916,0.000710277236066759,0,
00:00:04.92,-0.010310280136764,0,
00:00:04.924,-0.0063635278493166,0,
00:00:04.928,0.0131965856999159,0,
00:00:04.932,0.00983356963843107,0,
00:00:04.936,-0.00985944271087646,0,
00:00:04.94,-0.0126134119927883,0,
00:00:04.944,0.00658129481598735,0,
00:00:04.948,0.011096740141511,0,
00:00:04.952,-0.00626488868147135,0,
00:00:04.956,-0.00985413324087858,0,
00:00:04.96,0.00747244944795966,0,
00:00:04.964,0.0104863652959466,0,
00:00:04.968,-0.00539507670328021,0,
00:00:04.972,-0.0128416437655687,0,
00:00:04.976,0.00123169063590467,0,
00:00:04.98,0.0164208095520735,0,
00:00:04.984,-0.00287895300425589,0,
00:00:04.988,-0.0127283269539475,0,
00:00:04.992,-0.00185677816625685,0,
00:00:04.996,0.0173003058880568,0,
00:00:05,0.00229245703667402,0,
00:00:05.004,-0.0165654420852661,0,
00:00:05.008,-0.00569181004539132,0,
00:00:05.012,0.0121391741558909,0,
00:00:05.016,0.00755512062460184,0,
00:00:05.02,-0.00915403757244349,0,
00:00:05.024,-0.00581208104267716,0,
00:00:05.028,0.00926727242767811,0,
00:00:05.032,0.00492405332624912,0,
00:00:05.036,-0.0082483384758234,0,
00:00:05.04,-0.0096453633159399,0,
00:00:05.044,0.00844551343470812,0,
00:00:05.048,0.0113559681922197,0,
00:00:05.052,-0.00498142931610346,0,
00:00:05.056,-0.0128620797768235,0,
00:00:05.06,0.00305603840388358,0,
00:00:05.064,0.0121014583855867,0,
00:00:05.068,-0.000626749650109559,0,
00:00:05.072,-0.0153357097879052,0,
00:00:05.076,0.00371635053306818,0,
00:00:05.08,0.0130159240216017,0,
00:00:05.084,-0.00247860956005752,0,
00:00:05.088,-0.00959201715886593,0,
00:00:05.092,-0.00123680452816188,0,
00:00:05.096,0.00940388813614845,0,
00:00:05.1,0.00398311298340559,0,
00:00:05.104,-0.0130171608179808,0,
00:00:05.108,-0.00157012580893934,0,
00:00:05.112,0.0101821394637227,0,
00:00:05.116,0.00473611336201429,0,
00:00:05.12,-0.0106420898810029,0,
00:00:05.124,-0.00574220111593604,0,
00:00:05.128,0.010203086771071,0,
00:00:05.132,0.00591916544362903,0,
00:00:05.136,-0.00768290227279067,0,
00:00:05.14,-0.00959689263254404,0,
00:00:05.144,0.0102345561608672,0,
00:00:05.148,0.0069396230392158,0,
00:00:05.152,-0.00490473303943872,0,
00:00:05.156,-0.0114806974306703,0,
00:00:05.16,0.00412906799465418,0,
00:00:05.164,0.0123967956751585,0,
00:00:05.168,-0.00300310435704887,0,
00:00:05.172,-0.0117865707725286,0,
00:00:05.176,0.00299823237583041,0,
00:00:05.18,0.0114130554720759,0,
00:00:05.184,-0.00134939036797732,0,
00:00:05.188,-0.0115833664312959,0,
00:00:05.192,-0.00440368056297302,0,
00:00:05.196,0.0139064667746425,0,
00:00:05.2,0.00487739220261574,0,
00:00:05.204,-0.0113148773089051,0,
00:00:05.208,-0.0061691333539784,0,
00:00:05.212,0.0101878112182021,0,
00:00:05.216,0.00612917309626937,0,
00:00:05.22,-0.00954582449048758,0,
00:00:05.224,-0.00545229623094201,0,
00:00:05.228,0.00986707955598831,0,
00:00:05.232,0.00744705041870475,0,
00:00:05.236,-0.010079201310873,0,
00:00:05.24,-0.0113932359963655,0,
00:00:05.244,0.00805656705051661,0,
00:00:05.248,0.0120136896148324,0,
00:00:05.252,-0.00612009735777974,0,
00:00:05.256,-0.0102527290582657,0,
00:00:05.26,0.00483670644462109,0,
00:00:05.264,0.0120413359254599,0,
00:00:05.268,-0.00391369173303247,0,
00:00:05.272,-0.0126051483675838,0,
00:00:05.276,0.00262726028449833,0,
00:00:05.28,0.0114951301366091,0,
00:00:05.284,-0.00101859879214317,0,
00:00:05.288,-0.0133151914924383,0,
00:00:05.292,-0.000144200996146537,0,
00:00:05.296,0.0136145511642098,0,
00:00:05.3,0.00126311660278589,0,
00:00:05.304,-0.0104682995006442,0,
00:00:05.308,-0.0047949249856174,0,
00:00:05.312,0.0107297850772738,0,
00:00:05.316,0.00584667734801769,0,
00:00:05.32,-0.00808314885944128,0,
00:00:05.324,-0.00999587588012218,0,
00:00:05.328,0.0100283734500408,0,
00:00:05.332,0.00902428012341261,0,
00:00:05.336,-0.00881738495081663,0,
00:00:05.34,-0.0109889535233378,0,
00:00:05.344,0.00777355208992958,0,
00:00:05.348,0.0114689646288753,0,
00:00:05.352,-0.00448870519176126,0,
00:00:05.356,-0.0144855258986354,0,
00:00:05.36,0.00522732455283403,0,
00:00:05.364,0.0157582368701696,0,
00:00:05.368,-0.00469773635268211,0,
00:00:05.372,-0.0139665650203824,0,
00:00:05.376,0.00206361897289753,0,
00:00:05.38,0.0117450961843133,0,
00:00:05.384,-0.00250622699968517,0,
00:00:05.388,-0.00878144893795252,0,
00:00:05.392,-0.00237806770019233,0,
00:00:05.396,0.0160978697240353,0,
00:00:05.4,-0.000322945910738781,0,
00:00:05.404,-0.0144084580242634,0,
00:00:05.408,-0.00148019299376756,0,
00:00:05.412,0.0107539091259241,0,
00:00:05.416,0.00522010307759047,0,
00:00:05.42,-0.0104501899331808,0,
00:00:05.424,-0.00580498669296503,0,
00:00:05.428,0.0100244404748082,0,
00:00:05.432,0.00575528247281909,0,
00:00:05.436,-0.00568818580359221,0,
00:00:05.44,-0.0115679409354925,0,
00:00:05.444,0.00449430523440242,0,
00:00:05.448,0.0128485774621367,0,
00:00:05.452,-0.00271546049043536,0,
00:00:05.456,-0.0117321843281388,0,
00:00:05.46,0.00288525596261024,0,
00:00:05.464,0.0112470407038927,0,
00:00:05.468,-0.0014766986714676,0,
00:00:05.472,-0.0137097202241421,0,
00:00:05.476,-0.00033671734854579,0,
00:00:05.48,0.0136210713535547,0,
00:00:05.484,0.00138267443981022,0,
00:00:05.488,-0.0103340875357389,0,
00:00:05.492,-0.00470975274220109,0,
00:00:05.496,0.014901309274137,0,
00:00:05.5,-0.000206452343263663,0,
00:00:05.504,-0.0135859744623303,0,
00:00:05.508,-0.000639177567791194,0,
00:00:05.512,0.0112105151638389,0,
00:00:05.516,0.00315886782482266,0,
00:00:05.52,-0.00666052661836147,0,
00:00:05.524,-0.00852984376251698,0,
00:00:05.528,0.0103206494823098,0,
00:00:05.532,0.00838990788906813,0,
00:00:05.536,-0.0096953883767128,0,
00:00:05.54,-0.0115834334865212,0,
00:00:05.544,0.00763806980103254,0,
00:00:05.548,0.0116828996688128,0,
00:00:05.552,-0.00622626254335046,0,
00:00:05.556,-0.0101633574813604,0,
00:00:05.56,0.00501159392297268,0,
00:00:05.564,0.0142712416127324,0,
00:00:05.568,-0.00581150176003575,0,
00:00:05.572,-0.0142472106963396,0,
00:00:05.576,0.000329205504385754,0,
00:00:05.58,0.0163366943597794,0,
00:00:05.584,-0.000358227116521448,0,
00:00:05.588,-0.0141583569347858,0,
00:00:05.592,-0.00314831594005227,0,
00:00:05.596,0.0151203665882349,0,
00:00:05.6,0.00498231453821063,0,
00:00:05.604,-0.0140901543200016,0,
00:00:05.608,-0.00295962602831423,0,
00:00:05.612,0.00934118498116732,0,
00:00:05.616,0.00460153864696622,0,
00:00:05.62,-0.0103148017078638,0,
00:00:05.624,-0.00529895443469286,0,
00:00:05.628,0.0105136781930923,0,
00:00:05.632,0.00601281691342592,0,
00:00:05.636,-0.00775939226150513,0,
00:00:05.64,-0.00974140875041485,0,
00:00:05.644,0.00803600531071424,0,
00:00:05.648,0.0130090108141303,0,
00:00:05.652,-0.00928377360105515,0,
00:00:05.656,-0.0125726191326976,0,
00:00:05.66,0.00461717555299401,0,
00:00:05.664,0.0132579393684864,0,
00:00:05.668,-0.00241585844196379,0,
00:00:05.672,-0.0116440020501614,0,
00:00:05.676,0.00281820725649595,0,
00:00:05.68,0.011127800680697,0,
00:00:05.684,-0.00156791449990124,0,
00:00:05.688,-0.0137410247698426,0,
00:00:05.692,-0.0023930910974741,0,
00:00:05.696,0.0156381335109472,0,
00:00:05.7,0.00306199048645794,0,
00:00:05.704,-0.00806248653680086,0,
00:00:05.708,-0.00752788316458464,0,
00:00:05.712,0.005993218626827,0,
00:00:05.716,0.00697492994368076,0,
00:00:05.72,-0.00573081662878394,0,
00:00:05.724,-0.00852579157799482,0,
00:00:05.728,0.0102137001231313,0,
00:00:05.732,0.00631253141909838,0,
00:00:05.736,-0.00556983333081007,0,
00:00:05.74,-0.0118454787880182,0,
00:00:05.744,0.00411890912801027,0,
00:00:05.748,0.0126100089401007,0,
00:00:05.752,-0.00274548586457968,0,
00:00:05.756,-0.0116114746779203,0,
00:00:05.76,0.00305058481171727,0,
00:00:05.764,0.0113712996244431,0,
00:00:05.768,-0.00350404623895884,0,
00:00:05.772,-0.00967480149120092,0,
00:00:05.776,-0.00071689608739689,0,
00:00:05.78,0.0121113387867808,0,
00:00:05.784,0.000338618585374206,0,
00:00:05.788,-0.0125966910272837,0,
00:00:05.792,-0.000249624048592523,0,
00:00:05.796,0.0109802968800068,0,
00:00:05.8,0.00474787456914783,0,
00:00:05.804,-0.0111101865768433,0,
00:00:05.808,-0.00834786426275969,0,
00:00:05.812,0.0118592334911227,0,
00:00:05.816,0.0075155352242291,0,
00:00:05.82,-0.00736452918499708,0,
00:00:05.824,-0.0102459592744708,0,
00:00:05.828,0.00934961717575789,0,
00:00:05.832,0.00636125728487968,0,
00:00:05.836,-0.00708514591678977,0,
00:00:05.84,-0.00926142185926437,0,
00:00:05.844,0.00820330902934074,0,
00:00:05.848,0.0108735766261816,0,
00:00:05.852,-0.00537622859701514,0,
00:00:05.856,-0.0130223911255598,0,
00:00:05.86,0.00310924532823265,0,
00:00:05.864,0.0122603196650743,0,
00:00:05.868,-0.00047277970588766,0,
00:00:05.872,-0.0131743866950274,0,
00:00:05.876,-0.000325812521623448,0,
00:00:05.88,0.0133095169439912,0,
00:00:05.884,0.00308685330674052,0,
00:00:05.888,-0.0146345207467675,0,
00:00:05.892,-0.00237221946008503,0,
00:00:05.896,0.0103024002164602,0,
00:00:05.9,0.003236492164433,0,
00:00:05.904,-0.00604689586907625,0,
00:00:05.908,-0.00789819099009037,0,
00:00:05.912,0.0106646660715342,0,
00:00:05.916,0.00632534781470895,0,
00:00:05.92,-0.0079172607511282,0,
00:00:05.924,-0.0101799927651882,0,
00:00:05.928,0.00765302684158087,0,
00:00:05.932,0.010791840031743,0,
00:00:05.936,-0.00721508823335171,0,
00:00:05.94,-0.0107208248227835,0,
00:00:05.944,0.00706749362871051,0,
00:00:05.948,0.0105497911572456,0,
00:00:05.952,-0.00507232407107949,0,
00:00:05.956,-0.0145758436992764,0,
00:00:05.96,0.00549099547788501,0,
00:00:05.964,0.0140532962977886,0,
00:00:05.968,-0.000366451946320012,0,
00:00:05.972,-0.0141907269135118,0,
00:00:05.976,-0.0015142458723858,0,
00:00:05.98,0.0146698914468288,0,
00:00:05.984,-0.00105006899684668,0,
00:00:05.988,-0.0139554562047124,0,
00:00:05.992,-0.00251989695243537,0,
00:00:05.996,0.0157120786607265,0,
00:00:06,0.00321104028262198,0,
00:00:06.004,-0.010040127672255,0,
00:00:06.008,-0.0055514951236546,0,
00:00:06.012,0.00963935814797878,0,
00:00:06.016,0.0071607893332839,0,
00:00:06.02,-0.0123344697058201,0,
00:00:06.024,-0.00734768202528358,0,
00:00:06.028,0.00784850679337978,0,
00:00:06.032,0.00863687787204981,0,
00:00:06.036,-0.00296421954408288,0,
00:00:06.04,-0.0107190776616335,0,
00:00:06.044,0.00583313452079892,0,
00:00:06.048,0.00747637404128909,0,
00:00:06.052,-0.00342552131041884,0,
00:00:06.056,-0.0106595670804381,0,
00:00:06.06,0.00201045512221754,0,
00:00:06.064,0.0159345269203186,0,
00:00:06.068,-0.00178559904452413,0,
00:00:06.072,-0.015498417429626,0,
00:00:06.076,-0.00172465725336224,0,
00:00:06.08,0.011137692257762,0,
00:00:06.084,0.00579626904800534,0,
00:00:06.088,-0.0121003529056907,0,
00:00:06.092,-0.00368652842007577,0,
00:00:06.096,0.0115760657936335,0,
00:00:06.1,0.00574063370004296,0,
00:00:06.104,-0.00877687241882086,0,
00:00:06.108,-0.00862959679216146,0,
00:00:06.112,0.00560721196234226,0,
00:00:06.116,0.00937744695693254,0,
00:00:06.12,-0.00709386449307203,0,
00:00:06.124,-0.00967238750308752,0,
00:00:06.128,0.00815455708652735,0,
00:00:06.132,0.0111266281455755,0,
00:00:06.136,-0.00716427667066455,0,
00:00:06.14,-0.0109077747911215,0,
00:00:06.144,0.00471109244972467,0,
00:00:06.148,0.01229028403759,0,
00:00:06.152,-0.00147164915688336,0,
00:00:06.156,-0.0143007589504123,0,
00:00:06.16,0.00109493010677397,0,
00:00:06.164,0.0112814530730247,0,
00:00:06.168,-0.00235813320614398,0,
00:00:06.172,-0.00833809655159712,0,
00:00:06.176,-0.0019778807181865,0,
00:00:06.18,0.0162779800593853,0,
00:00:06.184,-0.00243945396505296,0,
00:00:06.188,-0.0105177648365498,0,
00:00:06.192,-0.0040545929223299,0,
00:00:06.196,0.0132411792874336,0,
00:00:06.2,0.00384898600168526,0,
00:00:06.204,-0.0120633207261562,0,
00:00:06.208,-0.00845043454319239,0,
00:00:06.212,0.0124035589396954,0,
00:00:06.216,0.0102678155526519,0,
00:00:06.22,-0.00891138799488544,0,
00:00:06.224,-0.011816899292171,0,
00:00:06.228,0.00483517115935683,0,
00:00:06.232,0.0129649369046092,0,
00:00:06.236,-0.00287527381442487,0,
00:00:06.24,-0.0119743645191193,0,
00:00:06.244,0.00272967712953687,0,
00:00:06.248,0.0133098103106022,0,
00:00:06.252,-0.00543635617941618,0,
00:00:06.256,-0.0153307821601629,0,
00:00:06.26,0.00527002708986402,0,
00:00:06.264,0.0143428267911077,0,
00:00:06.268,9.08397778403014E-05,0,
00:00:06.272,-0.0138607509434223,0,
00:00:06.276,-0.00350069929845631,0,
00:00:06.28,0.0144643420353532,0,
00:00:06.284,0.00446125632151961,0,
00:00:06.288,-0.0142641384154558,0,
00:00:06.292,-0.00282323360443115,0,
00:00:06.296,0.00961970072239637,0,
00:00:06.3,0.00485332356765866,0,
00:00:06.304,-0.0101823825389147,0,
00:00:06.308,-0.00529148057103157,0,
00:00:06.312,0.0104454308748245,0,
00:00:06.316,0.00592970987781882,0,
00:00:06.32,-0.00781552121043205,0,
00:00:06.324,-0.0097577003762126,0,
00:00:06.328,0.0080499704927206,0,
00:00:06.332,0.00888308975845575,0,
00:00:06.336,-0.00323590752668679,0,
00:00:06.34,-0.0112540842965245,0,
00:00:06.344,0.00332795642316341,0,
00:00:06.348,0.01138826739043,0,
00:00:06.352,-0.00363593176007271,0,
00:00:06.356,-0.011882022023201,0,
00:00:06.36,0.00120884098578244,0,
00:00:06.364,0.011712689884007,0,
00:00:06.368,0.00256870221346617,0,
00:00:06.372,-0.00964851025491953,0,
00:00:06.376,-0.00511076394468546,0,
00:00:06.38,0.0119207063689828,0,
00:00:06.384,0.00103425921406597,0,
00:00:06.388,-0.0101104807108641,0,
00:00:06.392,-0.00638757552951574,0,
00:00:06.396,0.0151554811745882,0,
00:00:06.4,0.0057010012678802,0,
00:00:06.404,-0.0115986671298742,0,
00:00:06.408,-0.00702883955091238,0,
00:00:06.412,0.00735364807769656,0,
00:00:06.416,0.00987969897687435,0,
00:00:06.42,-0.00765754282474518,0,
00:00:06.424,-0.010596371255815,0,
00:00:06.428,0.00746305892243981,0,
00:00:06.432,0.0109047638252378,0,
00:00:06.436,-0.00491810543462634,0,
00:00:06.44,-0.0125448284670711,0,
00:00:06.444,0.00336559535935521,0,
00:00:06.448,0.0122602060437202,0,
00:00:06.452,-0.0027075968682766,0,
00:00:06.456,-0.0113869328051805,0,
00:00:06.46,0.00119046843610704,0,
00:00:06.464,0.0134505368769169,0,
00:00:06.468,0.00227591069415212,0,
00:00:06.472,-0.0156043535098433,0,
00:00:06.476,-0.00503034424036741,0,
00:00:06.48,0.0142937721684575,0,
00:00:06.484,0.00527714472264051,0,
00:00:06.488,-0.0111702010035515,0,
00:00:06.492,-0.00622347509488463,0,
00:00:06.496,0.0100718177855015,0,
00:00:06.5,0.00605221837759018,0,
00:00:06.504,-0.0095513928681612,0,
00:00:06.508,-0.00748135056346655,0,
00:00:06.512,0.0119034321978688,0,
00:00:06.516,0.00913382507860661,0,
00:00:06.52,-0.00988564547151327,0,
00:00:06.524,-0.0122429244220257,0,
00:00:06.528,0.00701123336330056,0,
00:00:06.532,0.0113667072728276,0,
00:00:06.536,-0.00621040957048535,0,
00:00:06.54,-0.00995214562863112,0,
00:00:06.544,0.00525018200278282,0,
00:00:06.548,0.014424997381866,0,
00:00:06.552,-0.00577280297875404,0,
00:00:06.556,-0.0142922587692738,0,
00:00:06.56,0.00233032274991274,0,
00:00:06.564,0.0101498747244477,0,
00:00:06.568,0.00192476843949407,0,
00:00:06.572,-0.00897007621824741,0,
00:00:06.576,-0.00390556058846414,0,
00:00:06.58,0.0128418607637286,0,
00:00:06.584,0.00339282909408212,0,
00:00:06.588,-0.0144252246245742,0,
00:00:06.592,-0.00447734910994768,0,
00:00:06.596,0.0121331140398979,0,
00:00:06.6,0.00683562457561493,0,
00:00:06.604,-0.00994827039539814,0,
00:00:06.608,-0.00627848971635103,0,
00:00:06.612,0.00713674584403634,0,
00:00:06.616,0.00919534265995026,0,
00:00:06.62,-0.00621432904154062,0,
00:00:06.624,-0.0128755215555429,0,
00:00:06.628,0.00585680222138762,0,
00:00:06.632,0.0109557872638106,0,
00:00:06.636,-0.00382855068892241,0,
00:00:06.64,-0.0113636441528797,0,
00:00:06.644,0.00195405795238912,0,
00:00:06.648,0.0163422431796789,0,
00:00:06.652,-0.0034201699309051,0,
00:00:06.656,-0.0133216651156545,0,
00:00:06.66,-0.000156177862663753,0,
00:00:06.664,0.0131603628396988,0,
00:00:06.668,0.000665994943119586,0,
00:00:06.672,-0.0108634429052472,0,
00:00:06.676,-0.00485836155712605,0,
00:00:06.68,0.0129959862679243,0,
00:00:06.684,0.00414770375937223,0,
00:00:06.688,-0.0115832183510065,0,
00:00:06.692,-0.00810317602008581,0,
00:00:06.696,0.0145724304020405,0,
00:00:06.7,0.00402836222201586,0,
00:00:06.704,-0.00679634138941765,0,
00:00:06.708,-0.0088718868792057,0,
00:00:06.712,0.0101077798753977,0,
00:00:06.716,0.00628729397431016,0,
00:00:06.72,-0.00763271609321237,0,
00:00:06.724,-0.00775877805426717,0,
00:00:06.728,0.00382899586111307,0,
00:00:06.732,0.0111816860735416,0,
00:00:06.736,-0.00581961777061224,0,
00:00:06.74,-0.00773970549926162,0,
00:00:06.744,0.00310930935665965,0,
00:00:06.748,0.0104464991018176,0,
00:00:06.752,-0.00414810888469219,0,
00:00:06.756,-0.0118304817005992,0,
00:00:06.76,0.00362543133087456,0,
00:00:06.764,0.0121395997703075,0,
00:00:06.768,-0.000899888284038752,0,
00:00:06.772,-0.0135800009593368,0,
00:00:06.776,-0.00053245504386723,0,
00:00:06.78,0.0133149949833751,0,
00:00:06.784,0.00114175863564014,0,
00:00:06.788,-0.0104340855032206,0,
00:00:06.792,-0.00468458468094468,0,
00:00:06.796,0.0108372801914811,0,
00:00:06.8,0.00798217859119177,0,
00:00:06.804,-0.012128071859479,0,
00:00:06.808,-0.00761457532644272,0,
00:00:06.812,0.00740660866722465,0,
00:00:06.816,0.00827658828347921,0,
00:00:06.82,-0.00312435906380415,0,
00:00:06.824,-0.0106941452249885,0,
00:00:06.828,0.00387965352274477,0,
00:00:06.832,0.0137299969792366,0,
00:00:06.836,-0.00565916299819946,0,
00:00:06.84,-0.0158298648893833,0,
00:00:06.844,0.00483541144058108,0,
00:00:06.848,0.0141421034932137,0,
00:00:06.852,0.000118983625725377,0,
00:00:06.856,-0.0137077514082193,0,
00:00:06.86,-0.00126317562535405,0,
00:00:06.864,0.0125869950279593,0,
00:00:06.868,0.000762235838919878,0,
00:00:06.872,-0.0104256020858884,0,
00:00:06.876,-0.00444160122424364,0,
00:00:06.88,0.0131940711289644,0,
00:00:06.884,0.00411578733474016,0,
00:00:06.888,-0.0117449900135398,0,
00:00:06.892,-0.00827565509825945,0,
00:00:06.896,0.0144660165533423,0,
00:00:06.9,0.00608146097511053,0,
00:00:06.904,-0.00873578526079655,0,
00:00:06.908,-0.0104592125862837,0,
00:00:06.912,0.00789722986519337,0,
00:00:06.916,0.0111979953944683,0,
00:00:06.92,-0.00486779911443591,0,
00:00:06.924,-0.0126601997762918,0,
00:00:06.928,0.00528466096147895,0,
00:00:06.932,0.0081013273447752,0,
00:00:06.936,-0.00240334565751255,0,
00:00:06.94,-0.00989031791687012,0,
00:00:06.944,0.00434054620563984,0,
00:00:06.948,0.0117050567641854,0,
00:00:06.952,-0.00389456143602729,0,
00:00:06.956,-0.0103067671880126,0,
00:00:06.96,-0.00120088376570493,0,
00:00:06.964,0.0119343819096684,0,
00:00:06.968,0.0025002711918205,0,
00:00:06.972,-0.0143656702712178,0,
00:00:06.976,-0.00377765926532447,0,
00:00:06.98,0.0149535732343793,0,
00:00:06.984,0.00526115112006664,0,
00:00:06.988,-0.0136769134551287,0,
00:00:06.992,-0.00475011486560106,0,
00:00:06.996,0.0113799311220646,0,
00:00:07,0.00613467115908861,0,
00:00:07.004,-0.0103088589385152,0,
00:00:07.008,-0.0062795146368444,0,
00:00:07.012,0.00734949950128794,0,
00:00:07.016,0.00944319646805525,0,
00:00:07.02,-0.00605179229751229,0,
00:00:07.024,-0.0149082532152534,0,
00:00:07.028,0.00778686068952084,0,
00:00:07.032,0.0125203654170036,0,
00:00:07.036,-0.00371454632841051,0,
00:00:07.04,-0.0122339073568583,0,
00:00:07.044,0.000931478687562048,0,
00:00:07.048,0.0157336127012968,0,
00:00:07.052,-0.00347945373505354,0,
00:00:07.056,-0.0130076454952359,0,
00:00:07.06,0.000254682789091021,0,
00:00:07.064,0.0134573709219694,0,
00:00:07.068,0.000771174964029342,0,
00:00:07.072,-0.0109148938208818,0,
00:00:07.076,-0.00497918482869864,0,
00:00:07.08,0.0128864422440529,0,
00:00:07.084,0.00409173592925072,0,
00:00:07.088,-0.0115838665515184,0,
00:00:07.092,-0.00807122513651848,0,
00:00:07.096,0.01253392547369,0,
00:00:07.1,0.0101796155795455,0,
00:00:07.104,-0.00909859128296375,0,
00:00:07.108,-0.0119858495891094,0,
00:00:07.112,0.00682348385453224,0,
00:00:07.116,0.0109867565333843,0,
00:00:07.12,-0.00654539791867137,0,
00:00:07.124,-0.0101193003356457,0,
00:00:07.128,0.0052521931938827,0,
00:00:07.132,0.0145249050110579,0,
00:00:07.136,-0.0056585343554616,0,
00:00:07.14,-0.0142186153680086,0,
00:00:07.144,0.000272842677077278,0,
00:00:07.148,0.0162548590451479,0,
00:00:07.152,-0.0024955989792943,0,
00:00:07.156,-0.0101305609568954,0,
00:00:07.16,-0.00347250746563077,0,
00:00:07.164,0.0136794885620475,0,
00:00:07.168,0.00398509716615081,0,
00:00:07.172,-0.014263104647398,0,
00:00:07.176,-0.00463772565126419,0,
00:00:07.18,0.0139349037781358,0,
00:00:07.184,0.00464330101385713,0,
00:00:07.188,-0.0116770202293992,0,
00:00:07.192,-0.00850251037627459,0,
00:00:07.196,0.0141913369297981,0,
00:00:07.2,0.00592034542933106,0,
00:00:07.204,-0.00874636322259903,0,
00:00:07.208,-0.0103691872209311,0,
00:00:07.212,0.00801122467964888,0,
00:00:07.216,0.011278634890914,0,
00:00:07.22,-0.00691651925444603,0,
00:00:07.224,-0.0107006300240755,0,
00:00:07.228,0.00689268298447132,0,
00:00:07.232,0.0103240245953202,0,
00:00:07.236,-0.00523633323609829,0,
00:00:07.24,-0.012559643946588,0,
00:00:07.244,0.00146628892980516,0,
00:00:07.248,0.0144517812877893,0,
00:00:07.252,0.00115848239511251,0,
00:00:07.256,-0.0131397899240255,0,
00:00:07.26,-0.00132834597025067,0,
00:00:07.264,0.0121800033375621,0,
00:00:07.268,0.00243187905289233,0,
00:00:07.272,-0.0146848224103451,0,
00:00:07.276,-0.00202069734223187,0,
00:00:07.28,0.0107513582333922,0,
00:00:07.284,0.00355559657327831,0,
00:00:07.288,-0.00593845965340734,0,
00:00:07.292,-0.00795879866927862,0,
00:00:07.296,0.0105313621461391,0,
00:00:07.3,0.00620674015954137,0,
00:00:07.304,-0.00590061955153942,0,
00:00:07.308,-0.0142301069572568,0,
00:00:07.312,0.00594622269272804,0,
00:00:07.316,0.0163485929369926,0,
00:00:07.32,-0.00235096039250493,0,
00:00:07.324,-0.0180210079997778,0,
00:00:07.328,0.00433397339656949,0,
00:00:07.332,0.00901532545685768,0,
00:00:07.336,-0.00123030436225235,0,
00:00:07.34,-0.009208794683218,0,
00:00:07.344,0.00441641872748733,0,
00:00:07.348,0.0114027345553041,0,
00:00:07.352,-0.00427479576319456,0,
00:00:07.356,-0.0105592012405396,0,
00:00:07.36,-0.00126419786829501,0,
00:00:07.364,0.00993613805621862,0,
00:00:07.368,0.00252780388109386,0,
00:00:07.372,-0.00856945291161537,0,
00:00:07.376,-0.00388949527405202,0,
00:00:07.38,0.0126368915662169,0,
00:00:07.384,0.00525321671739221,0,
00:00:07.388,-0.014428649097681,0,
00:00:07.392,-0.010149072855711,0,
00:00:07.396,0.0123830242082477,0,
00:00:07.4,0.00924286153167486,0,
00:00:07.404,-0.00576335098594427,0,
00:00:07.408,-0.00950046069920063,0,
00:00:07.412,0.00713444221764803,0,
00:00:07.416,0.00977914594113827,0,
00:00:07.42,-0.00601051934063435,0,
00:00:07.424,-0.0131108090281487,0,
00:00:07.428,0.00338077964261174,0,
00:00:07.432,0.0126271983608603,0,
00:00:07.436,-0.0022828143555671,0,
00:00:07.44,-0.0111063215881586,0,
00:00:07.444,0.0012680625077337,0,
00:00:07.448,0.0154524752870202,0,
00:00:07.452,-0.00398151436820626,0,
00:00:07.456,-0.0113276122137904,0,
00:00:07.46,-0.00187089247629046,0,
00:00:07.464,0.0118806194514036,0,
00:00:07.468,-0.00131470372434705,0,
00:00:07.472,-0.00794058199971914,0,
00:00:07.476,-0.00222603348083794,0,
00:00:07.48,0.0136992707848549,0,
00:00:07.484,0.00328790629282594,0,
00:00:07.488,-0.0129649667069316,0,
00:00:07.492,-0.0070705502294004,0,
00:00:07.496,0.0101640727370977,0,
00:00:07.5,0.00665897084400058,0,
00:00:07.504,-0.00682910671457648,0,
00:00:07.508,-0.00906615424901247,0,
00:00:07.512,0.00825741980224848,0,
00:00:07.516,0.0107859075069427,0,
00:00:07.52,-0.00761217949911952,0,
00:00:07.524,-0.00912128854542971,0,
00:00:07.528,0.00268798461183906,0,
00:00:07.532,0.0107775842770934,0,
00:00:07.536,-0.00353888585232198,0,
00:00:07.54,-0.0113400733098388,0,
00:00:07.544,0.0038224570453167,0,
00:00:07.548,0.0120730428025126,0,
00:00:07.552,-0.00317139085382223,0,
00:00:07.556,-0.00971764791756868,0,
00:00:07.56,-0.000969910412095487,0,
00:00:07.564,0.00976407621055841,0,
00:00:07.568,0.00214650598354638,0,
00:00:07.572,-0.00683837383985519,0,
00:00:07.576,-0.00604201294481754,0,
00:00:07.58,0.0109910620376468,0,
00:00:07.584,0.0010237202513963,0,
00:00:07.588,-0.00951854977756739,0,
00:00:07.592,-0.00368464062921703,0,
00:00:07.596,0.0114129995927215,0,
00:00:07.6,0.00597591232508421,0,
00:00:07.604,-0.00833309255540371,0,
00:00:07.608,-0.0103575121611357,0,
00:00:07.612,0.00975909642875195,0,
00:00:07.616,0.0068503855727613,0,
00:00:07.62,-0.00472135376185179,0,
00:00:07.624,-0.00913678854703903,0,
00:00:07.628,0.000282241526292637,0,
00:00:07.632,0.016961470246315,0,
00:00:07.636,-0.0138189168646932,0,
00:00:07.64,0.00415138201788068,0,
00:00:07.644,-0.000553617544937879,0,
00:00:07.648,-0.00106815656181425,0,
00:00:07.652,0.00182375079020858,0,
00:00:07.656,-0.00773143209517002,0,
00:00:07.66,0.000798946770373732,0,
00:00:07.664,0.0153680518269539,0,
00:00:07.668,0.00296101812273264,0,
00:00:07.672,-0.0143687771633267,0,
00:00:07.676,-0.00843665841966867,0,
00:00:07.68,0.0136273019015789,0,
00:00:07.684,-0.0034682594705373,0,
00:00:07.688,0.000452014268375933,0,
00:00:07.692,-0.0099737336859107,0,
00:00:07.696,0.0219721235334873,0,
00:00:07.7,-0.010540634393692,0,
00:00:07.704,-0.0118008581921458,0,
00:00:07.708,0.00129130890127271,0,
00:00:07.712,0.0236179456114769,0,
00:00:07.716,0.00701840128749609,0,
00:00:07.72,-0.0535435602068901,0,
00:00:07.724,0.0264789704233408,0,
00:00:07.728,0.00993201043456793,0,
00:00:07.732,0.00763691589236259,0,
00:00:07.736,0.00228606653399765,0,
00:00:07.74,-0.0217046029865742,0,
00:00:07.744,-0.00248687155544758,0,
00:00:07.748,0.000375948991859332,0,
00:00:07.752,0.00674881506711245,0,
00:00:07.756,0.00366517156362534,0,
00:00:07.76,0.00400259857997298,0,
00:00:07.764,-0.00785098038613796,0,
00:00:07.768,0.0138135114684701,0,
00:00:07.772,-0.00856576766818762,0,
00:00:07.776,0.00431268895044923,0,
00:00:07.78,-0.0112904729321599,0,
00:00:07.784,-0.0146822119131684,0,
00:00:07.788,0.0263587310910225,0,
00:00:07.792,0.0052076056599617,0,
00:00:07.796,-0.0250475350767374,0,
00:00:07.8,0.00525033008307219,0,
00:00:07.804,0.00559614691883326,0,
00:00:07.808,-0.00396033981814981,0,
00:00:07.812,0.0284269228577614,0,
00:00:07.816,-0.0179718136787415,0,
00:00:07.82,-0.00582254771143198,0,
00:00:07.824,-0.00172994518652558,0,
00:00:07.828,-0.000245969305979088,0,
00:00:07.832,0.000493092404212803,0,
00:00:07.836,-0.0157300308346748,0,
00:00:07.84,0.0188003573566675,0,
00:00:07.844,0.0180813893675804,0,
00:00:07.848,-0.0120369167998433,0,
00:00:07.852,0.000338685989845544,0,
00:00:07.856,-0.0194351356476545,0,
00:00:07.86,-0.0169454999268055,0,
00:00:07.864,0.0506772510707378,0,
00:00:07.868,-0.00893277674913406,0,
00:00:07.872,-0.00816620141267776,0,
00:00:07.876,-0.0123623181134462,0,
00:00:07.88,0.00719160307198763,0,
00:00:07.884,-0.0133804632350802,0,
00:00:07.888,0.0171736516058445,0,
00:00:07.892,0.0110311871394515,0,
00:00:07.896,-0.0100714629516006,0,
00:00:07.9,-0.0112176584079862,0,
00:00:07.904,-0.0022104736417532,0,
00:00:07.908,0.013027030043304,0,
00:00:07.912,0.0129258949309587,0,
00:00:07.916,-0.0226774346083403,0,
00:00:07.92,-0.00995640642940998,0,
00:00:07.924,0.0235433131456375,0,
00:00:07.928,0.00145058799535036,0,
00:00:07.932,-0.00160309113562107,0,
00:00:07.936,-0.0194356199353933,0,
00:00:07.94,0.00891846232116222,0,
00:00:07.944,0.0111038442701101,0,
00:00:07.948,-0.00452538812533021,0,
00:00:07.952,-0.0118801072239876,0,
00:00:07.956,-0.000183534735697322,0,
00:00:07.96,0.00612275442108512,0,
00:00:07.964,0.0249380860477686,0,
00:00:07.968,-0.0106674721464515,0,
00:00:07.972,-0.0214513558894396,0,
00:00:07.976,0.00271577737294137,0,
00:00:07.98,0.00230456446297467,0,
00:00:07.984,0.000945318082813174,0,
00:00:07.988,0.000565753725823015,0,
00:00:07.992,0.011242282576859,0,
00:00:07.996,0.00166502641513944,0,
00:00:08,-0.0107497153803706,0,
00:00:08.004,0.00439342670142651,0,
00:00:08.008,-0.012895061634481,0,
00:00:08.012,0.0108340885490179,0,
00:00:08.016,-0.00109894166234881,0,
00:00:08.02,-0.00588814029470086,0,
00:00:08.024,0.0105167347937822,0,
00:00:08.028,0.0134943835437298,0,
00:00:08.032,-0.014872170984745,0,
00:00:08.036,-0.0317833162844181,0,
00:00:08.04,0.015051637776196,0,
00:00:08.044,0.0323648527264595,0,
00:00:08.048,-0.000942293379921466,0,
00:00:08.052,-0.018591919913888,0,
00:00:08.056,-0.00885498616844416,0,
00:00:08.06,0.000725807389244437,0,
00:00:08.064,0.0075243073515594,0,
00:00:08.068,0.0116714537143707,0,
00:00:08.072,-0.00689850235357881,0,
00:00:08.076,-0.0111534120514989,0,
00:00:08.08,0.0104550579562783,0,
00:00:08.084,0.00388701376505196,0,
00:00:08.088,-0.0128849744796753,0,
00:00:08.092,-0.00314561859704554,0,
00:00:08.096,0.0168767385184765,0,
00:00:08.1,-0.00344226066954434,0,
00:00:08.104,-0.00776230357587337,0,
00:00:08.108,0.00405889749526978,0,
00:00:08.112,0.00108878139872104,0,
00:00:08.116,-0.000486722739879042,0,
00:00:08.12,-0.000880093080922961,0,
00:00:08.124,-0.00266469176858664,0,
00:00:08.128,0.00601729890331626,0,
00:00:08.132,0.00207860884256661,0,
00:00:08.136,-0.0108696147799492,0,
00:00:08.14,-0.00442831264808774,0,
00:00:08.144,0.00555525301024318,0,
00:00:08.148,0.0169841609895229,0,
00:00:08.152,-0.0044600241817534,0,
00:00:08.156,-0.0168052837252617,0,
00:00:08.16,0.000878579041454941,0,
00:00:08.164,0.0187221001833677,0,
00:00:08.168,-0.00281486310996115,0,
00:00:08.172,-0.0186656638979912,0,
00:00:08.176,0.00224075000733137,0,
00:00:08.18,0.0156182758510113,0,
00:00:08.184,-0.00297492300160229,0,
00:00:08.188,-0.00781459547579288,0,
00:00:08.192,-0.00275446707382798,0,
00:00:08.196,0.0105935903266072,0,
00:00:08.2,-0.0100864171981812,0,
00:00:08.204,0.00436889566481113,0,
00:00:08.208,0.00504110334441066,0,
00:00:08.212,0.00129573338199407,0,
00:00:08.216,0.000191906787222251,0,
00:00:08.22,-0.00485164066776633,0,
00:00:08.224,-0.00578995002433658,0,
00:00:08.228,-0.00294489064253867,0,
00:00:08.232,0.0111890602856874,0,
00:00:08.236,0.00577003275975585,0,
00:00:08.24,-0.0103303221985698,0,
00:00:08.244,-0.00396317057311535,0,
00:00:08.248,0.00979786366224289,0,
00:00:08.252,-0.00430703442543745,0,
00:00:08.256,-0.00162357266526669,0,
00:00:08.26,0.00241613085381687,0,
00:00:08.264,-0.000872282718773931,0,
00:00:08.268,-0.00278841005638242,0,
00:00:08.272,-0.00200093653984368,0,
00:00:08.276,0.00626361882314086,0,
00:00:08.28,0.00822142139077187,0,
00:00:08.284,-0.00419707782566547,0,
00:00:08.288,-0.00819608010351658,0,
00:00:08.292,0.00277662044391036,0,
00:00:08.296,-0.00226554553955793,0,
00:00:08.3,-0.00108447938691825,0,
00:00:08.304,0.00312723196111619,0,
00:00:08.308,-0.00411399593576789,0,
00:00:08.312,0.00394502840936184,0,
00:00:08.316,0.00579307274892926,0,
00:00:08.32,-0.00110592704731971,0,
00:00:08.324,-0.00930649228394032,0,
00:00:08.328,0.00774455582723022,0,
00:00:08.332,0.00231539760716259,0,
00:00:08.336,-0.00835398677736521,0,
00:00:08.34,0.00666620442643762,0,
00:00:08.344,-0.00545513443648815,0,
00:00:08.348,0.000843321729917079,0,
00:00:08.352,-0.00266719050705433,0,
00:00:08.356,-0.00178390427026898,0,
00:00:08.36,0.00886377785354853,0,
00:00:08.364,0.00471366243436933,0,
00:00:08.368,0.000588802446145564,0,
00:00:08.372,-0.0127598559483886,0,
00:00:08.376,0.000208655445021577,0,
00:00:08.38,-0.00321680540218949,0,
00:00:08.384,0.00372285628691316,0,
00:00:08.388,0.0133182546123862,0,
00:00:08.392,-0.00495366984978318,0,
00:00:08.396,-0.00227902224287391,0,
00:00:08.4,-0.00222047115676105,0,
00:00:08.404,-0.00805641897022724,0,
00:00:08.408,0.00098646804690361,0,
00:00:08.412,0.00919425208121538,0,
00:00:08.416,0.00892954599112272,0,
00:00:08.42,-0.01134033780545,0,
00:00:08.424,-0.00562661048024893,0,
00:00:08.428,0.00475818058475852,0,
00:00:08.432,-0.00239401869475842,0,
00:00:08.436,0.00833273306488991,0,
00:00:08.44,-0.00311901420354843,0,
00:00:08.444,-0.00140223919879645,0,
00:00:08.448,0.00347998668439686,0,
00:00:08.452,-0.00835715048015118,0,
00:00:08.456,0.000694769958499819,0,
00:00:08.46,0.00519231334328651,0,
00:00:08.464,0.000283295317785814,0,
00:00:08.468,-0.00111139717046171,0,
00:00:08.472,-0.00297872349619865,0,
00:00:08.476,0.00171062722802162,0,
00:00:08.48,0.00600752467289567,0,
00:00:08.484,-0.00340804783627391,0,
00:00:08.488,-0.00593599863350391,0,
00:00:08.492,-0.00348288496024907,0,
00:00:08.496,0.0127955256029963,0,
00:00:08.5,0.00144409073982388,0,
00:00:08.504,-0.010097362101078,0,
00:00:08.508,-0.000418050651205704,0,
00:00:08.512,0.00473115500062704,0,
00:00:08.516,0.00444627506658435,0,
00:00:08.52,-0.00690663838759065,0,
00:00:08.524,-0.0082008158788085,0,
00:00:08.528,0.00500532006844878,0,
00:00:08.532,0.0172917190939188,0,
00:00:08.536,-0.00213920976966619,0,
00:00:08.54,-0.0187786594033241,0,
00:00:08.544,0.00325384503230453,0,
00:00:08.548,0.0123912775889039,0,
00:00:08.552,-0.00955259706825018,0,
00:00:08.556,-0.00623414479196072,0,
00:00:08.56,0.00786346942186356,0,
00:00:08.564,0.0101803038269281,0,
00:00:08.568,-0.0138557339087129,0,
00:00:08.572,-0.00279430532827973,0,
00:00:08.576,0.0184223428368568,0,
00:00:08.58,-0.00251156277954578,0,
00:00:08.584,-0.0166029464453459,0,
00:00:08.588,0.00200494308955967,0,
00:00:08.592,-0.000841728877276182,0,
00:00:08.596,0.00890818517655134,0,
00:00:08.6,0.00279500265605748,0,
00:00:08.604,0.000850366021040827,0,
00:00:08.608,-0.00462807016447186,0,
00:00:08.612,-0.00380508229136467,0,
00:00:08.616,-0.00104886549524963,0,
00:00:08.62,-0.00302506890147924,0,
00:00:08.624,0.00167054787743837,0,
00:00:08.628,0.0169769730418921,0,
00:00:08.632,0.000409017113270238,0,
00:00:08.636,-0.0162699930369854,0,
00:00:08.64,-0.00441097002476454,0,
00:00:08.644,0.0024086837656796,0,
00:00:08.648,0.00234962394461036,0,
00:00:08.652,0.0115224830806255,0,
00:00:08.656,-0.0114718955010176,0,
00:00:08.66,0.00454328209161758,0,
00:00:08.664,0.00592898391187191,0,
00:00:08.668,-0.00256465072743595,0,
00:00:08.672,-0.0131836431100965,0,
00:00:08.676,0.00459261937066913,0,
00:00:08.68,0.00391638791188598,0,
00:00:08.684,0.00411645229905844,0,
00:00:08.688,0.000321114406688139,0,
00:00:08.692,-0.0127673950046301,0,
00:00:08.696,0.00709777139127254,0,
00:00:08.7,0.00662634242326021,0,
00:00:08.704,0.00084768672240898,0,
00:00:08.708,-0.00946044642478228,0,
00:00:08.712,-0.00423523224890232,0,
00:00:08.716,0.0126909492537379,0,
00:00:08.72,0.00344903254881501,0,
00:00:08.724,-0.012149746529758,0,
00:00:08.728,5.54593634660705E-06,0,
00:00:08.732,0.00473407888785005,0,
00:00:08.736,-0.00857669021934271,0,
00:00:08.74,0.00230175675824285,0,
00:00:08.744,0.0138358371332288,0,
00:00:08.748,0.000161544667207636,0,
00:00:08.752,-0.0139182498678565,0,
00:00:08.756,0.000397031079046428,0,
00:00:08.76,0.00607017800211906,0,
00:00:08.764,0.000791407481301576,0,
00:00:08.768,0.000887685804627836,0,
00:00:08.772,-0.00739668309688568,0,
00:00:08.776,-0.000360112229827791,0,
00:00:08.78,0.0114000216126442,0,
00:00:08.784,-0.00472293514758348,0,
00:00:08.788,-0.00299346027895808,0,
00:00:08.792,-0.00299636111594737,0,
00:00:08.796,0.00248212460428476,0,
00:00:08.8,0.00680696358904243,0,
00:00:08.804,-0.00918472371995449,0,
00:00:08.808,0.00419824570417404,0,
00:00:08.812,0.00353001221083105,0,
00:00:08.816,-0.00235691107809544,0,
00:00:08.82,0.00146803515963256,0,
00:00:08.824,-0.00912478379905224,0,
00:00:08.828,0.00120541523210704,0,
00:00:08.832,0.00827939342707396,0,
00:00:08.836,-0.000896676676347852,0,
00:00:08.84,-0.00663777394220233,0,
00:00:08.844,0.0026772222481668,0,
00:00:08.848,0.00969019439071417,0,
00:00:08.852,-0.00468756863847375,0,
00:00:08.856,-0.00994996260851622,0,
00:00:08.86,0.00170884130056947,0,
00:00:08.864,0.00650342833250761,0,
00:00:08.868,0.000930504000280052,0,
00:00:08.872,-0.00534881837666035,0,
00:00:08.876,0.00464791990816593,0,
00:00:08.88,0.00471338117495179,0,
00:00:08.884,-0.00944060552865267,0,
00:00:08.888,-0.0029202732257545,0,
00:00:08.892,0.00202691671438515,0,
00:00:08.896,0.0119019746780396,0,
00:00:08.9,-0.00322857336141169,0,
00:00:08.904,-0.00788177736103535,0,
00:00:08.908,-0.0053045367822051,0,
00:00:08.912,0.00993623211979866,0,
00:00:08.916,0.00154769257642329,0,
00:00:08.92,-0.00163648987654597,0,
00:00:08.924,-0.00188124435953796,0,
00:00:08.928,-0.00093690148787573,0,
00:00:08.932,0.0021372283808887,0,
00:00:08.936,-0.00345612713135779,0,
00:00:08.94,-0.00319805624894798,0,
00:00:08.944,0.00783752836287022,0,
00:00:08.948,0.00857994519174099,0,
00:00:08.952,-0.00721023324877024,0,
00:00:08.956,-0.0136394090950489,0,
00:00:08.96,0.00140094838570803,0,
00:00:08.964,0.0170676168054342,0,
00:00:08.968,-0.000175175155163743,0,
00:00:08.972,-0.0164468381553888,0,
00:00:08.976,0.00471228267997503,0,
00:00:08.98,0.00434714974835515,0,
00:00:08.984,-0.000165253368322738,0,
00:00:08.988,0.00165934732649475,0,
00:00:08.992,0.000256887782597914,0,
00:00:08.996,0.00091986870393157,0,
00:00:09,-0.00349611742421985,0,
00:00:09.004,0.00150576466694474,0,
00:00:09.008,-0.0146999452263117,0,
00:00:09.012,0.0140774976462126,0,
00:00:09.016,0.00980602949857712,0,
00:00:09.02,-0.0113138798624277,0,
00:00:09.024,-0.00545182358473539,0,
00:00:09.028,0.00303446990437806,0,
00:00:09.032,0.00818896666169167,0,
00:00:09.036,-0.0040451898239553,0,
00:00:09.04,-0.00574581930413842,0,
00:00:09.044,0.00584002071991563,0,
00:00:09.048,0.0058471099473536,0,
00:00:09.052,-0.0048177414573729,0,
00:00:09.056,-0.0111601231619716,0,
00:00:09.06,0.00434936303645372,0,
00:00:09.064,0.00831798370927572,0,
00:00:09.068,0.00923331826925278,0,
00:00:09.072,-0.0205946918576956,0,
00:00:09.076,-0.00136176368687302,0,
00:00:09.08,0.0142856417223811,0,
00:00:09.084,-8.97069476195611E-05,0,
00:00:09.088,-0.00409062253311276,0,
00:00:09.092,-0.0072359130717814,0,
00:00:09.096,0.00321538746356964,0,
00:00:09.1,0.0104971919208765,0,
00:00:09.104,-0.00614891108125448,0,
00:00:09.108,-0.0118540599942207,0,
00:00:09.112,0.0176667775958776,0,
00:00:09.116,-0.0021425315644592,0,
00:00:09.12,-0.0101043106988072,0,
00:00:09.124,-0.00136738992296159,0,
00:00:09.128,0.00765468459576368,0,
00:00:09.132,0.00642281072214246,0,
00:00:09.136,-0.00690853409469128,0,
00:00:09.14,-0.0052809976041317,0,
00:00:09.144,0.00384818064048886,0,
00:00:09.148,0.00305466633290052,0,
00:00:09.152,-0.00405270420014858,0,
00:00:09.156,-0.00814542453736067,0,
00:00:09.16,0.0196476690471172,0,
00:00:09.164,-0.00644676480442286,0,
00:00:09.168,0.000814098748378456,0,
00:00:09.172,-0.00737716583535075,0,
00:00:09.176,-0.00348437228240073,0,
00:00:09.18,0.00585990678519011,0,
00:00:09.184,0.00423836009576917,0,
00:00:09.188,-0.00386573909781873,0,
00:00:09.192,-0.00445352215319872,0,
00:00:09.196,0.00469347694888711,0,
00:00:09.2,0.00800636969506741,0,
00:00:09.204,-0.0076744225807488,0,
00:00:09.208,-0.00752543937414885,0,
00:00:09.212,0.0126691535115242,0,
00:00:09.216,0.00991903897374868,0,
00:00:09.22,-0.0161965079605579,0,
00:00:09.224,-0.0156324245035648,0,
00:00:09.228,0.00390188698656857,0,
00:00:09.232,0.0165779013186693,0,
00:00:09.236,0.00214252388104796,0,
00:00:09.24,-0.00235070660710335,0,
00:00:09.244,-0.000455394590971991,0,
00:00:09.248,0.000814296829048544,0,
00:00:09.252,0.00246110465377569,0,
00:00:09.256,-0.0172630231827497,0,
00:00:09.26,0.00231838785111904,0,
00:00:09.264,0.00930128339678049,0,
00:00:09.268,0.00510292872786522,0,
00:00:09.272,-0.00674251094460487,0,
00:00:09.276,0.0003688222495839,0,
00:00:09.28,0.00556279113516212,0,
00:00:09.284,-0.00561096612364054,0,
00:00:09.288,-0.00395626528188586,0,
00:00:09.292,0.000306847767205909,0,
00:00:09.296,0.0069439415819943,0,
00:00:09.3,0.000923203071579337,0,
00:00:09.304,-0.00183399405796081,0,
00:00:09.308,-0.00214005471207201,0,
00:00:09.312,0.00087789463577792,0,
00:00:09.316,3.1678908271715E-05,0,
00:00:09.32,-0.00298496591858566,0,
00:00:09.324,-0.00727981189265847,0,
00:00:09.328,0.00917694251984358,0,
00:00:09.332,0.0111841103062034,0,
00:00:09.336,-0.00759856123477221,0,
00:00:09.34,-0.00726677197962999,0,
00:00:09.344,-0.00372672802768648,0,
00:00:09.348,0.00663499534130096,0,
00:00:09.352,0.00539079727604985,0,
00:00:09.356,0.00516631500795484,0,
00:00:09.36,-0.0061184954829514,0,
00:00:09.364,-0.00624938681721687,0,
00:00:09.368,-0.000275567057542503,0,
00:00:09.372,-0.00282521871849895,0,
00:00:09.376,0.0030909685883671,0,
00:00:09.38,0.00591494189575315,0,
00:00:09.384,-0.00405416218563914,0,
00:00:09.388,0.0022739632986486,0,
00:00:09.392,0.00181547983083874,0,
00:00:09.396,0.00388276437297463,0,
00:00:09.4,-0.00138031481765211,0,
00:00:09.404,-0.0150849232450128,0,
00:00:09.408,0.00142646790482104,0,
00:00:09.412,0.00835606921464205,0,
00:00:09.416,0.00701955473050475,0,
00:00:09.42,-0.0103634297847748,0,
00:00:09.424,0.00125429173931479,0,
00:00:09.428,0.0052907494828105,0,
00:00:09.432,0.00157008634414524,0,
00:00:09.436,-0.00625797873362899,0,
00:00:09.44,-0.00550870690494776,0,
00:00:09.444,0.00700099719688296,0,
00:00:09.448,0.00692874286323786,0,
00:00:09.452,-0.00426349276676774,0,
00:00:09.456,-0.00491242576390505,0,
00:00:09.46,-0.00601383950561285,0,
00:00:09.464,0.000783727620728314,0,
00:00:09.468,0.0135508896782994,0,
00:00:09.472,0.00980083923786879,0,
00:00:09.476,-0.0138556184247136,0,
00:00:09.48,-0.0089481296017766,0,
00:00:09.484,0.00269505474716425,0,
00:00:09.488,-0.0108884982764721,0,
00:00:09.492,0.0111468639224768,0,
00:00:09.496,0.0171135570853949,0,
00:00:09.5,-0.00472819386050105,0,
00:00:09.504,-0.00821557641029358,0,
00:00:09.508,-0.00450104055926204,0,
00:00:09.512,0.0061857090331614,0,
00:00:09.516,0.00270046410150826,0,
00:00:09.52,-0.0145284356549382,0,
00:00:09.524,0.00391147471964359,0,
00:00:09.528,0.0111595652997494,0,
00:00:09.532,0.00185608980245888,0,
00:00:09.536,-0.0117779141291976,0,
00:00:09.54,0.00350586487911642,0,
00:00:09.544,0.00394721003249288,0,
00:00:09.548,0.00254737096838653,0,
00:00:09.552,-0.00606096070259809,0,
00:00:09.556,-0.0144801530987024,0,
00:00:09.56,0.0120362313464284,0,
00:00:09.564,0.0151098184287548,0,
00:00:09.568,-0.0017490218160674,0,
00:00:09.572,-0.0138600105419755,0,
00:00:09.576,-0.00455296598374844,0,
00:00:09.58,0.00661538122221828,0,
00:00:09.584,0.00924640707671642,0,
00:00:09.588,-0.0115873878821731,0,
00:00:09.592,0.000298488535918295,0,
00:00:09.596,0.00340718938969076,0,
00:00:09.6,0.00652440870180726,0,
00:00:09.604,-0.0119091626256704,0,
00:00:09.608,0.00150364416185766,0,
00:00:09.612,0.0172158014029264,0,
00:00:09.616,-0.00466711306944489,0,
00:00:09.62,-0.0136138312518597,0,
00:00:09.624,-0.00809413008391857,0,
00:00:09.628,0.00672661885619164,0,
00:00:09.632,0.00827008858323097,0,
00:00:09.636,0.0124656055122614,0,
00:00:09.64,-0.0165807101875544,0,
00:00:09.644,-0.00359479757025838,0,
00:00:09.648,0.0110813295468688,0,
00:00:09.652,-0.00397712457925081,0,
00:00:09.656,-0.0105034913867712,0,
00:00:09.66,0.0136355729773641,0,
00:00:09.664,0.00326534360647202,0,
00:00:09.668,-0.00743771344423294,0,
00:00:09.672,0.00118158699478954,0,
00:00:09.676,-0.00803093425929546,0,
00:00:09.68,0.00418461533263326,0,
00:00:09.684,0.00450913142412901,0,
00:00:09.688,-0.00491000059992075,0,
00:00:09.692,0.00257549551315606,0,
00:00:09.696,0.00276543339714408,0,
00:00:09.7,0.00271298247389495,0,
00:00:09.704,-0.00310169300064445,0,
00:00:09.708,-0.00537402229383588,0,
00:00:09.712,0.00269046518951654,0,
00:00:09.716,0.00224589719437063,0,
00:00:09.72,-0.00207541300915182,0,
00:00:09.724,-0.00349916471168399,0,
00:00:09.728,0.000133572146296501,0,
00:00:09.732,0.0110260332003236,0,
00:00:09.736,-0.0071100746281445,0,
00:00:09.74,-0.00316984811797738,0,
00:00:09.744,0.00275707454420626,0,
00:00:09.748,0.00862219650298357,0,
00:00:09.752,-0.00556647358462214,0,
00:00:09.756,-0.0101774614304304,0,
00:00:09.76,0.00201542745344341,0,
00:00:09.764,0.00700338743627071,0,
00:00:09.768,-0.000748098187614232,0,
00:00:09.772,0.000940666650421917,0,
00:00:09.776,-0.0039356485940516,0,
00:00:09.78,0.00738019775599241,0,
00:00:09.784,0.000367127475328743,0,
00:00:09.788,-0.00774087803438306,0,
00:00:09.792,-0.00401239562779665,0,
00:00:09.796,0.0053534940816462,0,
00:00:09.8,0.00187202671077102,0,
00:00:09.804,-0.00191813358105719,0,
00:00:09.808,-0.000584044144488871,0,
00:00:09.812,0.00517201516777277,0,
00:00:09.816,0.00369533989578485,0,
00:00:09.82,-0.00631218636408448,0,
00:00:09.824,-0.00730905681848526,0,
00:00:09.828,-0.0032115934882313,0,
00:00:09.832,0.0139122726395726,0,
00:00:09.836,0.000464271637611091,0,
00:00:09.84,-0.00961659196764231,0,
00:00:09.844,0.00320943654514849,0,
00:00:09.848,0.00621094321832061,0,
00:00:09.852,-0.000774172134697437,0,
00:00:09.856,0.0052829347550869,0,
00:00:09.86,-0.0144522339105606,0,
00:00:09.864,-0.00131770351435989,0,
00:00:09.868,0.00116912496741861,0,
00:00:09.872,0.00112120981793851,0,
00:00:09.876,0.00309123937040567,0,
00:00:09.88,0.00950689800083637,0,
00:00:09.884,-0.00417820969596505,0,
00:00:09.888,-0.00303942593745887,0,
00:00:09.892,-0.00395373674109578,0,
00:00:09.896,0.00335698341950774,0,
00:00:09.9,0.00195148482453078,0,
00:00:09.904,-0.00487876078113914,0,
00:00:09.908,-0.00213745702058077,0,
00:00:09.912,0.00361636560410261,0,
00:00:09.916,0.00934595335274935,0,
00:00:09.92,-0.00930416025221348,0,
00:00:09.924,-0.00409986870363355,0,
00:00:09.928,0.00519566284492612,0,
00:00:09.932,0.00345587963238359,0,
00:00:09.936,-0.00447301380336285,0,
00:00:09.94,-0.000543421250768006,0,
00:00:09.944,0.000841922126710415,0,
00:00:09.948,0.0049978569149971,0,
00:00:09.952,-0.00360392010770738,0,
00:00:09.956,-0.00962958205491304,0,
00:00:09.96,0.00316679873503745,0,
00:00:09.964,0.0145171703770757,0,
00:00:09.968,0.00231387047097087,0,
00:00:09.972,-0.0141003765165806,0,
00:00:09.976,-0.00352096604183316,0,
00:00:09.98,0.00412591686472297,0,
00:00:09.984,0.00359898200258613,0,
00:00:09.988,-0.00527667626738548,0,
00:00:09.992,-0.00129066512454301,0,
00:00:09.996,0.0114231798797846,0,
00:00:10,0.000415913964388892,0,
00:00:10.004,-0.00597166549414396,0,
00:00:10.008,-0.00181466538924724,0,
00:00:10.012,0.0040268125012517,0,
00:00:10.016,-0.00351541070267558,0,
00:00:10.02,-0.00694786990061402,0,
00:00:10.024,-0.00229187309741974,0,
00:00:10.028,0.0214272160083056,0,
00:00:10.032,-0.0025279987603426,0,
00:00:10.036,-0.00815699342638254,0,
00:00:10.04,-0.00951586663722992,0,
00:00:10.044,0.00111052265856415,0,
00:00:10.048,0.0116757266223431,0,
00:00:10.052,-0.00110655988100916,0,
00:00:10.056,-0.000891086296178401,0,
00:00:10.06,-0.00532838841900229,0,
00:00:10.064,0.00908106099814177,0,
00:00:10.068,-0.00119707838166505,0,
00:00:10.072,-0.0107745844870806,0,
00:00:10.076,0.000395867798943073,0,
00:00:10.08,0.0039924681186676,0,
00:00:10.084,0.00747933378443122,0,
00:00:10.088,-0.00691033294424415,0,
00:00:10.092,-0.00202510389499366,0,
00:00:10.096,0.00767820002511144,0,
00:00:10.1,0.000611309253145009,0,
00:00:10.104,-0.0135639626532793,0,
00:00:10.108,0.00642506498843431,0,
00:00:10.112,0.00854930654168129,0,
00:00:10.116,0.00121261819731444,0,
00:00:10.12,-0.0106002893298864,0,
00:00:10.124,-0.0118763605132699,0,
00:00:10.128,0.0137010253965855,0,
00:00:10.132,0.0103483572602272,0,
00:00:10.136,-0.00363039830699563,0,
00:00:10.14,-0.0100602675229311,0,
00:00:10.144,-0.00140083837322891,0,
00:00:10.148,0.00938036013394594,0,
00:00:10.152,0.00194654369261116,0,
00:00:10.156,-0.00890909228473902,0,
00:00:10.16,-0.00393152376636863,0,
00:00:10.164,0.0169462878257036,0,
00:00:10.168,-0.00678903795778751,0,
00:00:10.172,-0.00758126890286803,0,
00:00:10.176,-0.00170299992896616,0,
00:00:10.18,0.00500692194327712,0,
00:00:10.184,0.00835481192916632,0,
00:00:10.188,-0.00489659002050757,0,
00:00:10.192,-0.004669816698879,0,
00:00:10.196,0.00117910513654351,0,
00:00:10.2,0.00816039927303791,0,
00:00:10.204,-0.0112985828891397,0,
00:00:10.208,0.000727875449229032,0,
00:00:10.212,0.00777250342071056,0,
00:00:10.216,-0.00156180385965854,0,
00:00:10.22,-0.00507825380191207,0,
00:00:10.224,-0.00154009042307734,0,
00:00:10.228,0.00187705492135137,0,
00:00:10.232,0.00706525752320886,0,
00:00:10.236,0.00217586476355791,0,
00:00:10.24,-0.00895995739847422,0,
00:00:10.244,-0.000473799766041338,0,
00:00:10.248,0.0038492379244417,0,
00:00:10.252,0.00146024895366281,0,
00:00:10.256,-0.00536495167762041,0,
00:00:10.26,-0.000225917814532295,0,
00:00:10.264,0.00382666965015233,0,
00:00:10.268,-0.000286976282950491,0,
00:00:10.272,-0.00295449327677488,0,
00:00:10.276,-0.000423751742346212,0,
00:00:10.28,-0.000306467758491635,0,
00:00:10.284,0.0165607891976833,0,
00:00:10.288,-0.0069706249050796,0,
00:00:10.292,-0.0138273118063807,0,
00:00:10.296,0.00374012091197073,0,
00:00:10.3,0.000583999149966985,0,
00:00:10.304,-0.00313870701938868,0,
00:00:10.308,0.00554541777819395,0,
00:00:10.312,0.00672557530924678,0,
00:00:10.316,-0.00312114832922816,0,
00:00:10.32,0.000502310751471668,0,
00:00:10.324,-0.00529668759554625,0,
00:00:10.328,-0.000572137825656682,0,
00:00:10.332,0.00523586291819811,0,
00:00:10.336,-0.00281051406636834,0,
00:00:10.34,-0.00477167358621955,0,
00:00:10.344,-0.000425818900112063,0,
00:00:10.348,0.00710341427475214,0,
00:00:10.352,0.00366828800179064,0,
00:00:10.356,-0.0094252647832036,0,
00:00:10.36,0.0023847809061408,0,
00:00:10.364,0.00757288606837392,0,
00:00:10.368,-0.000889301241841167,0,
00:00:10.372,-0.0105864210054278,0,
00:00:10.376,-0.00198128959164023,0,
00:00:10.38,0.00959486793726683,0,
00:00:10.384,0.00475815450772643,0,
00:00:10.388,-0.0101571036502719,0,
00:00:10.392,-0.00519471615552902,0,
00:00:10.396,0.0105258906260133,0,
00:00:10.4,0.00387283437885344,0,
00:00:10.404,-0.00795306079089642,0,
00:00:10.408,2.64416976278881E-05,0,
00:00:10.412,0.00181574060115963,0,
00:00:10.416,0.00731678353622556,0,
00:00:10.42,-0.00804638862609863,0,
00:00:10.424,-0.0119346641004086,0,
00:00:10.428,0.0103891231119633,0,
00:00:10.432,0.0131692485883832,0,
00:00:10.436,-0.00666466215625405,0,
00:00:10.44,-0.0074485638178885,0,
00:00:10.444,0.00180181895848364,0,
00:00:10.448,0.00215754145756364,0,
00:00:10.452,-0.00384951499290764,0,
00:00:10.456,0.000910491100512445,0,
00:00:10.46,2.7009427867597E-05,0,
00:00:10.464,0.00546117546036839,0,
00:00:10.468,-9.84695725492202E-05,0,
00:00:10.472,-0.00205566035583615,0,
00:00:10.476,-0.00598729914054275,0,
00:00:10.48,0.00525601394474506,0,
00:00:10.484,0.00566779170185328,0,
00:00:10.488,-0.00456036813557148,0,
00:00:10.492,-0.00865202583372593,0,
00:00:10.496,0.00479794619604945,0,
00:00:10.5,0.00691825384274125,0,
00:00:10.504,-0.00498621165752411,0,
00:00:10.508,-0.00560758262872696,0,
00:00:10.512,0.00662987167015672,0,
00:00:10.516,0.00248990976251662,0,
00:00:10.52,-0.00253837392665446,0,
00:00:10.524,0.000291974662104622,0,
00:00:10.528,0.00219683954492211,0,
00:00:10.532,-0.000427538034273312,0,
00:00:10.536,-0.00228338711895049,0,
00:00:10.54,-0.00843673851341009,0,
00:00:10.544,0.00083039328455925,0,
00:00:10.548,0.00928198266774416,0,
00:00:10.552,0.00703163770958781,0,
00:00:10.556,-0.00923428405076265,0,
00:00:10.56,-0.00187940313480794,0,
00:00:10.564,0.0029069297015667,0,
00:00:10.568,0.0012647935654968,0,
00:00:10.572,-0.00716924853622913,0,
00:00:10.576,0.00211328780278564,0,
00:00:10.58,0.00568522652611136,0,
00:00:10.584,-0.00217424938455224,0,
00:00:10.588,0.000127561579574831,0,
00:00:10.592,0.000132747940369882,0,
00:00:10.596,0.00173868471756577,0,
00:00:10.6,-0.000448424165369943,0,
00:00:10.604,-0.0102611053735018,0,
00:00:10.608,0.00398362055420876,0,
00:00:10.612,0.00987273082137108,0,
00:00:10.616,0.000765065313316882,0,
00:00:10.62,-0.0059208245947957,0,
00:00:10.624,-0.00426124036312103,0,
00:00:10.628,-0.00267680385150015,0,
00:00:10.632,0.00593482563272119,0,
00:00:10.636,1.99983742277254E-06,0,
00:00:10.64,0.00207056384533644,0,
00:00:10.644,-0.00114512199070305,0,
00:00:10.648,0.00343976588919759,0,
00:00:10.652,-0.00167978275567293,0,
00:00:10.656,-0.000565912981983274,0,
00:00:10.66,-0.00975367240607738,0,
00:00:10.664,0.0145838959142566,0,
00:00:10.668,-0.00635412242263556,0,
00:00:10.672,-0.00591770932078362,0,
00:00:10.676,-0.000178159752977081,0,
00:00:10.68,0.00779363419860601,0,
00:00:10.684,0.00627169664949179,0,
00:00:10.688,-0.0133221242576838,0,
00:00:10.692,0.00464545749127865,0,
00:00:10.696,0.006796486210078,0,
00:00:10.7,-0.00380789372138679,0,
00:00:10.704,-0.00870134402066469,0,
00:00:10.708,0.000123000558232889,0,
00:00:10.712,0.0103277713060379,0,
00:00:10.716,0.00216728006489575,0,
00:00:10.72,-0.00918849650770426,0,
00:00:10.724,-0.000218210770981386,0,
00:00:10.728,0.00228159828111529,0,
00:00:10.732,0.00382801564410329,0,
00:00:10.736,0.000526724033989012,0,
00:00:10.74,-0.00830905791372061,0,
00:00:10.744,-0.000765136093832552,0,
00:00:10.748,0.00949269812554121,0,
00:00:10.752,0.00182863418012857,0,
00:00:10.756,-0.00909072253853083,0,
00:00:10.76,6.93375986884348E-05,0,
00:00:10.764,0.00668708607554436,0,
00:00:10.768,-0.00208677258342505,0,
00:00:10.772,-0.00703626964241266,0,
00:00:10.776,0.00295656197704375,0,
00:00:10.78,0.00819905381649733,0,
00:00:10.784,-0.00218424410559237,0,
00:00:10.788,-0.00803210213780403,0,
00:00:10.792,0.0018990570679307,0,
00:00:10.796,0.00344005390070379,0,
00:00:10.8,0.00585503736510873,0,
00:00:10.804,-0.00840508192777634,0,
00:00:10.808,-0.000649725727271289,0,
00:00:10.812,-0.000404327729484066,0,
00:00:10.816,0.00962720438838005,0,
00:00:10.82,-0.00799750071018934,0,
00:00:10.824,-0.00320739625021815,0,
00:00:10.828,0.00536672212183475,0,
00:00:10.832,0.00314788147807121,0,
00:00:10.836,-0.00489272642880678,0,
00:00:10.84,-0.00289534940384328,0,
00:00:10.844,0.00483686942607164,0,
00:00:10.848,0.00269453250803053,0,
00:00:10.852,-0.00708595011383295,0,
00:00:10.856,0.00337026524357498,0,
00:00:10.86,0.000668024644255638,0,
00:00:10.864,0.00171660271007568,0,
00:00:10.868,-0.00452286470681429,0,
00:00:10.872,0.000107342595583759,0,
00:00:10.876,-0.000573699711821973,0,
00:00:10.88,0.00731690088286996,0,
00:00:10.884,-0.00195792177692056,0,
00:00:10.888,-0.00549510167911649,0,
00:00:10.892,-0.00392526527866721,0,
00:00:10.896,0.0120395356789231,0,
00:00:10.9,-0.00121146475430578,0,
00:00:10.904,-0.00624568946659565,0,
00:00:10.908,-0.0047768447548151,0,
00:00:10.912,0.00748820463195443,0,
00:00:10.916,0.00695469416677952,0,
00:00:10.92,-0.00661242473870516,0,
00:00:10.924,-0.0053353663533926,0,
00:00:10.928,0.00155375176109374,0,
00:00:10.932,0.00484389392659068,0,
00:00:10.936,-0.00247068516910076,0,
00:00:10.94,0.00246638851240277,0,
00:00:10.944,-0.00341817201115191,0,
00:00:10.948,0.00456668389961123,0,
00:00:10.952,-0.00285274395719171,0,
00:00:10.956,-0.00479901069775224,0,
00:00:10.96,-0.000552863115444779,0,
00:00:10.964,0.00902438256889582,0,
00:00:10.968,0.00159400957636535,0,
00:00:10.972,-0.00692912377417088,0,
00:00:10.976,-0.00584400724619627,0,
00:00:10.98,0.00915312580764294,0,
00:00:10.984,0.00312330364249647,0,
00:00:10.988,-0.00789315160363913,0,
00:00:10.992,-0.00153475347906351,0,
00:00:10.996,0.00640488089993596,0,
00:00:11,0.00105609686579555,0,
00:00:11.004,0.000584308058023453,0,
00:00:11.008,-0.00798935815691948,0,
00:00:11.012,0.00122342200484127,0,
00:00:11.016,0.00300839566625655,0,
00:00:11.02,0.00588408624753356,0,
00:00:11.024,-0.00808482896536589,0,
00:00:11.028,0.00177977816201746,0,
00:00:11.032,0.00198620930314064,0,
00:00:11.036,-0.00215858384035528,0,
00:00:11.04,-0.00562261883169413,0,
00:00:11.044,0.00623271195217967,0,
00:00:11.048,0.00456596771255136,0,
00:00:11.052,-1.41927012009546E-05,0,
00:00:11.056,-0.0090488325804472,0,
00:00:11.06,0.000848663330543786,0,
00:00:11.064,0.00741315493360162,0,
00:00:11.068,-0.00175940652843565,0,
00:00:11.072,-0.00502291833981872,0,
00:00:11.076,-0.00135987438261509,0,
00:00:11.08,0.00618856027722359,0,
00:00:11.084,0.00525542115792632,0,
00:00:11.088,-0.00933854281902313,0,
00:00:11.092,-0.00302933831699193,0,
00:00:11.096,0.00598833244293928,0,
00:00:11.1,0.00154385471250862,0,
00:00:11.104,-0.000704250764101744,0,
00:00:11.108,-0.00542895682156086,0,
00:00:11.112,0.00512631656602025,0,
00:00:11.116,0.00521490769460797,0,
00:00:11.12,-0.00706604355946183,0,
00:00:11.124,-0.00482240738347173,0,
00:00:11.128,0.00446547940373421,0,
00:00:11.132,0.00351032870821655,0,
00:00:11.136,-0.00387669983319938,0,
00:00:11.14,-0.00197417801246047,0,
00:00:11.144,0.00317897833883762,0,
00:00:11.148,0.00457650888711214,0,
00:00:11.152,0.000409531785408035,0,
00:00:11.156,-0.00691852532327175,0,
00:00:11.16,-0.00346078886650503,0,
00:00:11.164,0.00952273514121771,0,
00:00:11.168,-0.00449626427143812,0,
00:00:11.172,-0.00363642652519047,0,
00:00:11.176,0.000435885565821081,0,
00:00:11.18,0.00696992734447122,0,
00:00:11.184,0.00291802198626101,0,
00:00:11.188,-0.00811572931706905,0,
00:00:11.192,-0.00207197922281921,0,
00:00:11.196,0.00791701581329107,0,
00:00:11.2,0.000844318943563849,0,
00:00:11.204,-0.00717712333425879,0,
00:00:11.208,-0.00563764851540327,0,
00:00:11.212,0.00751604326069355,0,
00:00:11.216,0.00552185717970133,0,
00:00:11.22,-0.00184646958950907,0,
00:00:11.224,-0.0052533745765686,0,
00:00:11.228,0.000122179189929739,0,
00:00:11.232,0.00360242836177349,0,
00:00:11.236,-0.000864698144141585,0,
00:00:11.24,-0.00761877885088325,0,
00:00:11.244,-0.00498374458402395,0,
00:00:11.248,0.0255061164498329,0,
00:00:11.252,0.0119868395850062,0,
00:00:11.256,-0.0253192558884621,0,
00:00:11.26,-0.0138879381120205,0,
00:00:11.264,-0.00070437986869365,0,
00:00:11.268,0.00897386390715837,0,
00:00:11.272,0.00384379317983985,0,
00:00:11.276,0.000926431035622954,0,
00:00:11.28,0.00815985724329948,0,
00:00:11.284,0.00437949690967798,0,
00:00:11.288,-0.00999060552567244,0,
00:00:11.292,-0.00981351733207703,0,
00:00:11.296,0.00480235368013382,0,
00:00:11.3,0.00498730875551701,0,
00:00:11.304,-0.00291606737300754,0,
00:00:11.308,-0.00180588744115084,0,
00:00:11.312,0.00286571332253516,0,
00:00:11.316,0.00418201088905334,0,
00:00:11.32,-0.00604374893009663,0,
00:00:11.324,0.00107971613761038,0,
00:00:11.328,0.00378310959786177,0,
00:00:11.332,0.000481135997688398,0,
00:00:11.336,-0.0250992644578218,0,
00:00:11.34,0.00241302186623216,0,
00:00:11.344,0.0635032653808594,0,
00:00:11.348,0.00214448641054332,0,
00:00:11.352,-0.051327470690012,0,
00:00:11.356,-0.0389610677957535,0,
00:00:11.36,0.0018149825045839,0,
00:00:11.364,0.0308811236172915,0,
00:00:11.368,0.0320365130901337,0,
00:00:11.372,0.000767094839829952,0,
00:00:11.376,-0.0148274293169379,0,
00:00:11.38,-0.00248193508014083,0,
00:00:11.384,0.00200034049339592,0,
00:00:11.388,-0.0134128071367741,0,
00:00:11.392,-0.00623904541134834,0,
00:00:11.396,0.00758811691775918,0,
00:00:11.4,0.0121247628703713,0,
00:00:11.404,-0.00263375253416598,0,
00:00:11.408,-0.00436113309115171,0,
00:00:11.412,-0.00182216393295676,0,
00:00:11.416,0.00686975102871656,0,
00:00:11.42,-0.000167971767950803,0,
00:00:11.424,-0.00969657953828573,0,
00:00:11.428,-0.00148326472844929,0,
00:00:11.432,0.00963310804218054,0,
00:00:11.436,0.00036893374635838,0,
00:00:11.44,-0.00233965297229588,0,
00:00:11.444,-0.00396672356873751,0,
00:00:11.448,0.00558279687538743,0,
00:00:11.452,0.000256169034400955,0,
00:00:11.456,-0.00425009708851576,0,
00:00:11.46,-0.00636292155832052,0,
00:00:11.464,0.00463818153366447,0,
00:00:11.468,0.00540610821917653,0,
00:00:11.472,-0.00396342063322663,0,
00:00:11.476,0.0071492288261652,0,
00:00:11.48,0.0110329538583755,0,
00:00:11.484,-0.010986759327352,0,
00:00:11.488,-0.0159520134329796,0,
00:00:11.492,-0.00890111736953259,0,
00:00:11.496,0.0114767774939537,0,
00:00:11.5,0.0164134968072176,0,
00:00:11.504,0.00346798147074878,0,
00:00:11.508,-0.0129743525758386,0,
00:00:11.512,-0.00295055215246975,0,
00:00:11.516,0.0101011097431183,0,
00:00:11.52,-0.00108921248465776,0,
00:00:11.524,-0.01105647534132,0,
00:00:11.528,-0.00404677074402571,0,
00:00:11.532,0.0140434699133039,0,
00:00:11.536,0.00487867882475257,0,
00:00:11.54,-0.0113546941429377,0,
00:00:11.544,-0.00619286438450217,0,
00:00:11.548,0.0101955002173781,0,
00:00:11.552,0.00615730741992593,0,
00:00:11.556,-0.00743990112096071,0,
00:00:11.56,-0.00948432926088572,0,
00:00:11.564,0.0102049047127366,0,
00:00:11.568,0.00683034351095557,0,
00:00:11.572,-0.00501789385452867,0,
00:00:11.576,-0.0115492502227426,0,
00:00:11.58,0.00411546509712934,0,
00:00:11.584,0.0124210370704532,0,
00:00:11.588,-0.00296713039278984,0,
00:00:11.592,-0.00968336686491966,0,
00:00:11.596,-0.0010421919869259,0,
00:00:11.6,0.0117426533252001,0,
00:00:11.604,0.000105127714050468,0,
00:00:11.608,-0.0126493293792009,0,
00:00:11.612,-0.000173048130818643,0,
00:00:11.616,0.011099960654974,0,
00:00:11.62,0.0048415157943964,0,
00:00:11.624,-0.0110719194635749,0,
00:00:11.628,-0.00628261920064688,0,
00:00:11.632,0.0098493630066514,0,
00:00:11.636,0.00791551824659109,0,
00:00:11.64,-0.011611464433372,0,
00:00:11.644,-0.00699613802134991,0,
00:00:11.648,0.00779986195266247,0,
00:00:11.652,0.0104318708181381,0,
00:00:11.656,-0.00732103455811739,0,
00:00:11.66,-0.0105792228132486,0,
00:00:11.664,0.00725169293582439,0,
00:00:11.668,0.00855502765625715,0,
00:00:11.672,-0.00314555829390883,0,
00:00:11.676,-0.00890543963760138,0,
00:00:11.68,0.00159359502140433,0,
00:00:11.684,0.00985114090144634,0,
00:00:11.688,-0.00384025578387082,0,
00:00:11.692,-0.0111358053982258,0,
00:00:11.696,0.00421516178175807,0,
00:00:11.7,0.0123874293640256,0,
00:00:11.704,-0.000975388335064054,0,
00:00:11.708,-0.0138211501762271,0,
00:00:11.712,-0.0028468940872699,0,
00:00:11.716,0.0151538867503405,0,
00:00:11.72,0.00484093325212598,0,
00:00:11.724,-0.012174273841083,0,
00:00:11.728,-0.00709133641794324,0,
00:00:11.732,0.00968881230801344,0,
00:00:11.736,0.00613790098577738,0,
00:00:11.74,-0.00921730045229197,0,
00:00:11.744,-0.00506442366167903,0,
00:00:11.748,0.0101290624588728,0,
00:00:11.752,0.00544943660497665,0,
00:00:11.756,-0.00609027128666639,0,
00:00:11.76,-0.0118439262732863,0,
00:00:11.764,0.00441645132377744,0,
00:00:11.768,0.0149988541379571,0,
00:00:11.772,-0.00663356995210052,0,
00:00:11.776,-0.0112882638350129,0,
00:00:11.78,0.00440049497410655,0,
00:00:11.784,0.012260184623301,0,
00:00:11.788,-0.00340462336316705,0,
00:00:11.792,-0.0100946184247732,0,
00:00:11.796,-0.00331799942068756,0,
00:00:11.8,0.0158203281462193,0,
00:00:11.804,-6.94859627401456E-05,0,
00:00:11.808,-0.0118648381903768,0,
00:00:11.812,-0.00513318320736289,0,
00:00:11.816,0.011275882832706,0,
00:00:11.82,0.00667107198387384,0,
00:00:11.824,-0.00955680850893259,0,
00:00:11.828,-0.00575792044401169,0,
00:00:11.832,0.0116177760064602,0,
00:00:11.836,0.00321298954077065,0,
00:00:11.84,-0.00975964311510324,0,
00:00:11.844,-0.00983348302543163,0,
00:00:11.848,0.0091953482478857,0,
00:00:11.852,0.0122812120243907,0,
00:00:11.856,-0.00649116327986121,0,
00:00:11.86,-0.00874411873519421,0,
00:00:11.864,0.00244238413870335,0,
00:00:11.868,0.0123358368873596,0,
00:00:11.872,-0.00805024895817041,0,
00:00:11.876,-0.0112382490187883,0,
00:00:11.88,0.00528845936059952,0,
00:00:11.884,0.0132291717454791,0,
00:00:11.888,-0.000753732572775334,0,
00:00:11.892,-0.0140641396865249,0,
00:00:11.896,-0.00115981476847082,0,
00:00:11.9,0.0128924772143364,0,
00:00:11.904,0.00103368214331567,0,
00:00:11.908,-0.0103044016286731,0,
00:00:11.912,-0.00446787057444453,0,
00:00:11.916,0.0130892004817724,0,
00:00:11.92,0.00400844169780612,0,
00:00:11.924,-0.0118082417175174,0,
00:00:11.928,-0.00828610826283693,0,
00:00:11.932,0.0124151399359107,0,
00:00:11.936,0.0101674711331725,0,
00:00:11.94,-0.0111190555617213,0,
00:00:11.944,-0.00786371994763613,0,
00:00:11.948,0.00653995713219047,0,
00:00:11.952,0.00953772850334644,0,
00:00:11.956,-0.00550000835210085,0,
00:00:11.96,-0.0123011190444231,0,
00:00:11.964,0.00398848159238696,0,
00:00:11.968,0.0128119699656963,0,
00:00:11.972,-0.00245727598667145,0,
00:00:11.976,-0.0114351287484169,0,
00:00:11.98,0.0030561878811568,0,
00:00:11.984,0.0112568968906999,0,
00:00:11.988,-0.00157289789058268,0,
00:00:11.992,-0.0138303004205227,0,
00:00:11.996,-0.000421331002144143,0,
00:00:12,0.0135932639241219,0,
00:00:12.004,0.00139987468719482,0,
00:00:12.008,-0.0123737463727593,0,
00:00:12.012,-0.000626954133622348,0,
00:00:12.016,0.0125077674165368,0,
00:00:12.02,0.00237905303947628,0,
00:00:12.024,-0.0128729986026883,0,
00:00:12.028,-0.00842687673866749,0,
00:00:12.032,0.0128895081579685,0,
00:00:12.036,0.010779881849885,0,
00:00:12.04,-0.00863243732601404,0,
00:00:12.044,-0.0138872703537345,0,
00:00:12.048,0.0107960365712643,0,
00:00:12.052,0.00838135741651058,0,
00:00:12.056,-0.00414176611229777,0,
00:00:12.06,-0.0115689216181636,0,
00:00:12.064,0.0035972639452666,0,
00:00:12.068,0.0139528466388583,0,
00:00:12.072,-0.00730884447693825,0,
00:00:12.076,-0.0114221489056945,0,
00:00:12.08,0.00465938868001103,0,
00:00:12.084,0.0126464674249291,0,
00:00:12.088,-0.00103024824056774,0,
00:00:12.092,-0.0140253305435181,0,
00:00:12.096,-0.000944129365961999,0,
00:00:12.1,0.0131231807172298,0,
00:00:12.104,0.00117578625213355,0,
00:00:12.108,-0.0102745722979307,0,
00:00:12.112,-0.00244060391560197,0,
00:00:12.116,0.00896459352225065,0,
00:00:12.12,0.00428513297811151,0,
00:00:12.124,-0.0103656593710184,0,
00:00:12.128,-0.00725916493684053,0,
00:00:12.132,0.0105456430464983,0,
00:00:12.136,0.0138420127332211,0,
00:00:12.14,-0.0119900489225984,0,
00:00:12.144,-0.0117862336337566,0,
00:00:12.148,0.00738212652504444,0,
00:00:12.152,0.0131703279912472,0,
00:00:12.156,-0.00879188347607851,0,
00:00:12.16,-0.0121045028790832,0,
00:00:12.164,0.00488243019208312,0,
00:00:12.168,0.0133027480915189,0,
00:00:12.172,-0.000435333582572639,0,
00:00:12.176,-0.0137510700151324,0,
00:00:12.18,-0.000993910478428006,0,
00:00:12.184,0.0128951454535127,0,
00:00:12.188,0.000936620344873518,0,
00:00:12.192,-0.0124953333288431,0,
00:00:12.196,-0.000493634550366551,0,
00:00:12.2,0.0127342557534575,0,
00:00:12.204,0.00256331148557365,0,
00:00:12.208,-0.0148681616410613,0,
00:00:12.212,-0.00439034635201097,0,
00:00:12.216,0.0145680280402303,0,
00:00:12.22,0.00519836973398924,0,
00:00:12.224,-0.0114328656345606,0,
00:00:12.228,-0.0064861155115068,0,
00:00:12.232,0.00991984643042088,0,
00:00:12.236,0.00602950341999531,0,
00:00:12.24,-0.00741315679624677,0,
00:00:12.244,-0.00937122572213411,0,
00:00:12.248,0.00824784766882658,0,
00:00:12.252,0.0109540801495314,0,
00:00:12.256,-0.00533607788383961,0,
00:00:12.26,-0.0130391083657742,0,
00:00:12.264,0.00305817602202296,0,
00:00:12.268,0.0122073153033853,0,
00:00:12.272,-0.000505663745570928,0,
00:00:12.276,-0.0152576602995396,0,
00:00:12.28,0.00373575836420059,0,
00:00:12.284,0.012992731295526,0,
00:00:12.288,-0.000440958450781181,0,
00:00:12.292,-0.0136735988780856,0,
00:00:12.296,-0.000916434917598963,0,
00:00:12.3,0.0108718033879995,0,
00:00:12.304,0.00501380022615194,0,
00:00:12.308,-0.0128213567659259,0,
00:00:12.312,-0.00403675809502602,0,
00:00:12.316,0.013685149140656,0,
00:00:12.32,0.00194169138558209,0,
00:00:12.324,-0.00816749781370163,0,
00:00:12.328,-0.00906707067042589,0,
00:00:12.332,0.010717486962676,0,
00:00:12.336,0.00917340815067291,0,
00:00:12.34,-0.0111190490424633,0,
00:00:12.344,-0.00933410879224539,0,
00:00:12.348,0.0092011010274291,0,
00:00:12.352,0.0116005074232817,0,
00:00:12.356,-0.00732637057080865,0,
00:00:12.36,-0.0092624993994832,0,
00:00:12.364,0.00238544144667685,0,
00:00:12.368,0.0126100778579712,0,
00:00:12.372,-0.00560346059501171,0,
00:00:12.376,-0.0129349855706096,0,
00:00:12.38,0.00168004690203816,0,
00:00:12.384,0.0149926571175456,0,
00:00:12.388,0.00162737397477031,0,
00:00:12.392,-0.0129588134586811,0,
00:00:12.396,-0.00142617768142372,0,
00:00:12.4,0.0119419414550066,0,
00:00:12.404,0.000128499959828332,0,
00:00:12.408,-0.0107618533074856,0,
00:00:12.412,-0.006522202398628,0,
00:00:12.416,0.0153679009526968,0,
00:00:12.42,0.0080694667994976,0,
00:00:12.424,-0.0133852502331138,0,
00:00:12.428,-0.0107151800766587,0,
00:00:12.432,0.0111456196755171,0,
00:00:12.436,0.00819636974483728,0,
00:00:12.44,-0.00413250736892223,0,
00:00:12.444,-0.0113534238189459,0,
00:00:12.448,0.00590664148330688,0,
00:00:12.452,0.0079391673207283,0,
00:00:12.456,-0.00295542040839791,0,
00:00:12.46,-0.0124837141484022,0,
00:00:12.464,0.00813938584178686,0,
00:00:12.468,0.0113977696746588,0,
00:00:12.472,-0.00309823593124747,0,
00:00:12.476,-0.015174656175077,0,
00:00:12.48,-0.000924891501199454,0,
00:00:12.484,0.0138257518410683,0,
00:00:12.488,0.0019525334937498,0,
00:00:12.492,-0.00981107633560896,0,
00:00:12.496,-0.00445037661120296,0,
00:00:12.5,0.0128124877810478,0,
00:00:12.504,0.00367440702393651,0,
00:00:12.508,-0.0120341051369905,0,
00:00:12.512,-0.00835235882550478,0,
00:00:12.516,0.0124704986810684,0,
00:00:12.52,0.0102701494470239,0,
00:00:12.524,-0.011032784357667,0,
00:00:12.528,-0.00989985466003418,0,
00:00:12.532,0.0105864247307181,0,
00:00:12.536,0.00917591899633408,0,
00:00:12.54,-0.00907103810459375,0,
00:00:12.544,-0.0113638238981366,0,
00:00:12.548,0.00544222677126527,0,
00:00:12.552,0.0133928246796131,0,
00:00:12.556,-0.00274132960475981,0,
00:00:12.56,-0.0120727485045791,0,
00:00:12.564,0.00253631011582911,0,
00:00:12.568,0.0110675990581512,0,
00:00:12.572,-0.00146464607678354,0,
00:00:12.576,-0.0135827232152224,0,
00:00:12.58,-0.00226900773122907,0,
00:00:12.584,0.0156894754618406,0,
00:00:12.588,0.00304888794198632,0,
00:00:12.592,-0.0101834246888757,0,
00:00:12.596,-0.00559709733352065,0,
00:00:12.6,0.0117617519572377,0,
00:00:12.604,0.0031983891967684,0,
00:00:12.608,-0.0139979356899858,0,
00:00:12.612,-0.00386635446920991,0,
00:00:12.616,0.0125877903774381,0,
00:00:12.62,0.00700159184634686,0,
00:00:12.624,-0.00794813968241215,0,
00:00:12.628,-0.0105149261653423,0,
00:00:12.632,0.00937548372894526,0,
00:00:12.636,0.00652066012844443,0,
00:00:12.64,-0.00486408872529864,0,
00:00:12.644,-0.0111770872026682,0,
00:00:12.648,0.00653721485286951,0,
00:00:12.652,0.0085542956367135,0,
00:00:12.656,-0.00054668600205332,0,
00:00:12.66,-0.0144397839903831,0,
00:00:12.664,0.00424603465944529,0,
00:00:12.668,0.0150563409551978,0,
00:00:12.672,-0.00481146899983287,0,
00:00:12.676,-0.0136806163936853,0,
00:00:12.68,0.000363072176696733,0,
00:00:12.684,0.0139658246189356,0,
00:00:12.688,0.00333767989650369,0,
00:00:12.692,-0.0167996156960726,0,
00:00:12.696,-0.00269478838890791,0,
00:00:12.7,0.0158149059861898,0,
00:00:12.704,0.00509217800572515,0,
00:00:12.708,-0.0123658617958426,0,
00:00:12.712,-0.00744934380054474,0,
00:00:12.716,0.0094178756698966,0,
00:00:12.72,0.00605929829180241,0,
00:00:12.724,-0.00913419295102358,0,
00:00:12.728,-0.00699004670605063,0,
00:00:12.732,0.0122330747544765,0,
00:00:12.736,0.00922968797385693,0,
00:00:12.74,-0.00996693223714828,0,
00:00:12.744,-0.0123927611857653,0,
00:00:12.748,0.00688562216237187,0,
00:00:12.752,0.0113091459497809,0,
00:00:12.756,-0.00412772176787257,0,
00:00:12.76,-0.013961635529995,0,
00:00:12.764,0.00770325912162662,0,
00:00:12.768,0.00978962983936071,0,
00:00:12.772,-0.00243954663164914,0,
00:00:12.776,-0.00893439911305904,0,
00:00:12.78,-0.000935289135668427,0,
00:00:12.784,0.0113415038213134,0,
00:00:12.788,-0.000396928342524916,0,
00:00:12.792,-0.0129538867622614,0,
00:00:12.796,-0.000200173395569436,0,
00:00:12.8,0.0133410999551415,0,
00:00:12.804,0.00100690801627934,0,
00:00:12.808,-0.0126566300168633,0,
00:00:12.812,-0.000709077168721706,0,
00:00:12.816,0.0105105107650161,0,
00:00:12.82,0.00449688266962767,0,
00:00:12.824,-0.0090348944067955,0,
00:00:12.828,-0.0101689910516143,0,
00:00:12.832,0.00832363869994879,0,
00:00:12.836,0.011511548422277,0,
00:00:12.84,-0.00682018650695682,0,
00:00:12.844,-0.0107141938060522,0,
00:00:12.848,0.00682857539504766,0,
00:00:12.852,0.0102623933926225,0,
00:00:12.856,-0.00734358420595527,0,
00:00:12.86,-0.00850786920636892,0,
00:00:12.864,0.00115256872959435,0,
00:00:12.868,0.013009094633162,0,
00:00:12.872,0.000153071276145056,0,
00:00:12.876,-0.0133211575448513,0,
00:00:12.88,0.00114016875158995,0,
00:00:12.884,0.0107464967295527,0,
00:00:12.888,-0.000908939924556762,0,
00:00:12.892,-0.0127810202538967,0,
00:00:12.896,-0.00171769398730248,0,
00:00:12.9,0.0158193074166775,0,
00:00:12.904,0.00492932414636016,0,
00:00:12.908,-0.0124722113832831,0,
00:00:12.912,-0.0074924691580236,0,
00:00:12.916,0.00939740892499685,0,
00:00:12.92,0.00603503407910466,0,
00:00:12.924,-0.0091659389436245,0,
00:00:12.928,-0.00702072074636817,0,
00:00:12.932,0.0122124208137393,0,
00:00:12.936,0.0071464516222477,0,
00:00:12.94,-0.00591288320720196,0,
00:00:12.944,-0.0127183934673667,0,
00:00:12.948,0.0033519605640322,0,
00:00:12.952,0.0143442684784532,0,
00:00:12.956,-0.00464565167203546,0,
00:00:12.96,-0.0129557056352496,0,
00:00:12.964,0.00110315426718444,0,
00:00:12.968,0.0143701825290918,0,
00:00:12.972,0.00127247732598335,0,
00:00:12.976,-0.0129879740998149,0,
00:00:12.98,-0.00124334951397032,0,
00:00:12.984,0.012174435891211,0,
00:00:12.988,0.000291926815407351,0,
00:00:12.992,-0.0127841839566827,0,
00:00:12.996,-0.00250477320514619,0,
00:00:13,0.014964459463954,0,
00:00:13.004,0.00446728244423866,0,
00:00:13.008,-0.0124596348032355,0,
00:00:13.012,-0.00925672799348831,0,
00:00:13.016,0.0138145117089152,0,
00:00:13.02,0.00387261598370969,0,
00:00:13.024,-0.00443084537982941,0,
00:00:13.028,-0.0104080317541957,0,
00:00:13.032,0.00673391344025731,0,
00:00:13.036,0.0103042405098677,0,
00:00:13.04,-0.00715859606862068,0,
00:00:13.044,-0.0103961750864983,0,
00:00:13.048,0.00736797042191029,0,
00:00:13.052,0.0106757609173656,0,
00:00:13.056,-0.00512112351134419,0,
00:00:13.06,-0.0126396771520376,0,
00:00:13.064,0.00337856309488416,0,
00:00:13.068,0.0123327663168311,0,
00:00:13.072,-0.000554548401851207,0,
00:00:13.076,-0.0133149838075042,0,
00:00:13.08,-0.000441988551756367,0,
00:00:13.084,0.0111811924725771,0,
00:00:13.088,0.00506927445530891,0,
00:00:13.092,-0.0129535477608442,0,
00:00:13.096,-0.00423010718077421,0,
00:00:13.1,0.0135352266952395,0,
00:00:13.104,0.00187996157910675,0,
00:00:13.108,-0.0081516969949007,0,
00:00:13.112,-0.00693707494065166,0,
00:00:13.116,0.00879555847495794,0,
00:00:13.12,0.00548559566959739,0,
00:00:13.124,-0.0072415117174387,0,
00:00:13.128,-0.00883817300200462,0,
00:00:13.132,0.00874608848243952,0,
00:00:13.136,0.0111988298594952,0,
00:00:13.14,-0.00743368733674288,0,
00:00:13.144,-0.00916384719312191,0,
00:00:13.148,0.00253080273978412,0,
00:00:13.152,0.0106192827224731,0,
00:00:13.156,-0.00363045861013234,0,
00:00:13.16,-0.0113534741103649,0,
00:00:13.164,0.00178472127299756,0,
00:00:13.168,0.0141001706942916,0,
00:00:13.172,0.000584054156206548,0,
00:00:13.176,-0.011502749286592,0,
00:00:13.18,-0.00553723331540823,0,
00:00:13.184,0.0125949867069721,0,
00:00:13.188,0.0040872055105865,0,
00:00:13.192,-0.01349135953933,0,
00:00:13.196,-0.00382162211462855,0,
00:00:13.2,0.0123321395367384,0,
00:00:13.204,0.00875063613057137,0,
00:00:13.208,-0.0122293774038553,0,
00:00:13.212,-0.00818142015486956,0,
00:00:13.216,0.00891227647662163,0,
00:00:13.22,0.00807278230786324,0,
00:00:13.224,-0.008820915594697,0,
00:00:13.228,-0.0103559382259846,0,
00:00:13.232,0.00847919844090939,0,
00:00:13.236,0.0118710603564978,0,
00:00:13.24,-0.00654472270980477,0,
00:00:13.244,-0.0106657454743981,0,
00:00:13.248,0.00668128253892064,0,
00:00:13.252,0.0100396424531937,0,
00:00:13.256,-0.0054511702619493,0,
00:00:13.26,-0.0126459458842874,0,
00:00:13.264,0.00149051833432168,0,
00:00:13.268,0.014529712498188,0,
00:00:13.272,0.00123425445053726,0,
00:00:13.276,-0.013097788207233,0,
00:00:13.28,-0.00339986081235111,0,
00:00:13.284,0.0162115097045898,0,
00:00:13.288,-2.28977683036646E-06,0,
00:00:13.292,-0.0121162608265877,0,
00:00:13.296,-0.00545509997755289,0,
00:00:13.3,0.011080602183938,0,
00:00:13.304,0.00665839016437531,0,
00:00:13.308,-0.00944189354777336,0,
00:00:13.312,-0.00560957752168179,0,
00:00:13.316,0.00965000409632921,0,
00:00:13.32,0.00730370357632637,0,
00:00:13.324,-0.0121855530887842,0,
00:00:13.328,-0.00936566200107336,0,
