Elapsed Time,Ch1,BioRadio Event,
00:00:00,1.51947104930878,0,
00:00:00.004,-1.44178450107574,0,
00:00:00.008,-1.20385026931763,0,
00:00:00.012,-0.136927336454391,0,
00:00:00.016,0.614785492420197,0,
00:00:00.02,0.757353127002716,0,
00:00:00.024,0.468365877866745,0,
00:00:00.028,0.0594280958175659,0,
00:00:00.032,-0.225117817521095,0,
00:00:00.036,-0.299693048000336,0,
00:00:00.04,-0.216522589325905,0,
00:00:00.044,-0.0858990475535393,0,
00:00:00.048,0.0262879859656096,0,
00:00:00.052,0.0904067903757095,0,
00:00:00.056,0.0876940712332726,0,
00:00:00.06,0.0429264158010483,0,
00:00:00.064,-0.00215560640208423,0,
00:00:00.068,-0.0246904902160168,0,
00:00:00.072,-0.0204144213348627,0,
00:00:00.076,-0.0202876627445221,0,
00:00:00.08,-0.0105384541675448,0,
00:00:00.084,0.00305681116878986,0,
00:00:00.088,0.016636997461319,0,
00:00:00.092,0.00626869732514024,0,
00:00:00.096,-0.00156685372348875,0,
00:00:00.1,-0.00214020279236138,0,
00:00:00.104,0.00536749651655555,0,
00:00:00.108,-0.00164534710347652,0,
00:00:00.112,-0.0105727957561612,0,
00:00:00.116,-0.00169063871726394,0,
00:00:00.12,0.0077882083132863,0,
00:00:00.124,0.00478386366739869,0,
00:00:00.128,-0.00239977962337434,0,
00:00:00.132,-0.0074101178906858,0,
00:00:00.136,0.00441324105486274,0,
00:00:00.14,0.00357404490932822,0,
00:00:00.144,-0.00213759765028954,0,
00:00:00.148,-0.00653240317478776,0,
00:00:00.152,0.00522607192397118,0,
00:00:00.156,0.00398693233728409,0,
00:00:00.16,-0.00213666609488428,0,
00:00:00.164,-0.00677053211256862,0,
00:00:00.168,0.00287681957706809,0,
00:00:00.172,0.00786279793828726,0,
00:00:00.176,-0.00251166755333543,0,
00:00:00.18,-0.00610508909448981,0,
00:00:00.184,-3.0554219847545E-05,0,
00:00:00.188,0.00402951100841165,0,
00:00:00.192,0.00178839650470763,0,
00:00:00.196,-0.00712969806045294,0,
00:00:00.2,-0.00021094705152791,0,
00:00:00.204,0.00941641815006733,0,
00:00:00.208,0.00140832457691431,0,
00:00:00.212,-0.00745708961039782,0,
00:00:00.216,-0.0042459974065423,0,
00:00:00.22,0.00489885080605745,0,
00:00:00.224,0.00353170442394912,0,
00:00:00.228,-0.00412859162315726,0,
00:00:00.232,-0.00226633669808507,0,
00:00:00.236,0.00507989199832082,0,
00:00:00.24,0.00258117890916765,0,
00:00:00.244,-0.00529841519892216,0,
00:00:00.248,-0.00303096254356205,0,
00:00:00.252,0.00490063149482012,0,
00:00:00.256,0.00283210887573659,0,
00:00:00.26,-0.00489848293364048,0,
00:00:00.264,-0.00271347630769014,0,
00:00:00.268,0.00295854127034545,0,
00:00:00.272,0.00477642053738236,0,
00:00:00.276,-0.00129466026555747,0,
00:00:00.28,-0.00462536513805389,0,
00:00:00.284,-0.00166662875562906,0,
00:00:00.288,0.00761462189257145,0,
00:00:00.292,0.000688277301378548,0,
00:00:00.296,-0.00708226440474391,0,
00:00:00.3,-0.00337014626711607,0,
00:00:00.304,0.00567645952105522,0,
00:00:00.308,0.00389951909892261,0,
00:00:00.312,-0.00417140685021877,0,
00:00:00.316,-0.00253837532363832,0,
00:00:00.32,0.00478690210729837,0,
00:00:00.324,0.00240012328140438,0,
00:00:00.328,-0.00533688068389893,0,
00:00:00.332,-0.00296971411444247,0,
00:00:00.336,0.0029180736746639,0,
00:00:00.34,0.00695510534569621,0,
00:00:00.344,-0.00312742171809077,0,
00:00:00.348,-0.00823861826211214,0,
00:00:00.352,0.0043206955306232,0,
00:00:00.356,0.00405514799058437,0,
00:00:00.36,-0.00153409456834197,0,
00:00:00.364,-0.00406981306150556,0,
00:00:00.368,0.00124440644867718,0,
00:00:00.372,0.00623465841636062,0,
00:00:00.376,-0.0028821611776948,0,
00:00:00.38,-0.00757400039583445,0,
00:00:00.384,0.00281128054484725,0,
00:00:00.388,0.0062532969750464,0,
00:00:00.392,0.00208476977422833,0,
00:00:00.396,-0.00612557306885719,0,
00:00:00.4,-0.00356153445318341,0,
00:00:00.404,0.00479433266445994,0,
00:00:00.408,0.000933953269850463,0,
00:00:00.412,-0.000593976059462875,0,
00:00:00.416,-0.00286813615821302,0,
00:00:00.42,0.00362146226689219,0,
00:00:00.424,0.00173404335509986,0,
00:00:00.428,-0.005283881444484,0,
00:00:00.432,-0.00250283745117486,0,
00:00:00.436,0.00548488600179553,0,
00:00:00.44,0.00317912339232862,0,
00:00:00.444,-0.00277663953602314,0,
00:00:00.448,-0.00692174909636378,0,
00:00:00.452,0.00515539851039648,0,
00:00:00.456,0.00411124853417277,0,
00:00:00.46,-0.00197234214283526,0,
00:00:00.464,-0.00459114415571094,0,
00:00:00.468,0.000917653844226152,0,
00:00:00.472,0.00409945007413626,0,
00:00:00.476,-0.000776964297983795,0,
00:00:00.48,-0.00366770452819765,0,
00:00:00.484,-0.000919389363843948,0,
00:00:00.488,0.00579988723620772,0,
00:00:00.492,0.00250321067869663,0,
00:00:00.496,-0.00579098658636212,0,
00:00:00.5,-0.0035103561822325,0,
00:00:00.504,0.00467003928497434,0,
00:00:00.508,0.00286756572313607,0,
00:00:00.512,-0.00471138721331954,0,
00:00:00.516,-0.00251283193938434,0,
00:00:00.52,0.00515883788466454,0,
00:00:00.524,0.00282833492383361,0,
00:00:00.528,-0.00505366874858737,0,
00:00:00.532,-0.00289060408249497,0,
00:00:00.536,0.00492035923525691,0,
00:00:00.54,0.00277296314015985,0,
00:00:00.544,-0.00290259765461087,0,
00:00:00.548,-0.00474656792357564,0,
00:00:00.552,0.00129643816035241,0,
00:00:00.556,0.00460996432229877,0,
00:00:00.56,-0.000427982158726081,0,
00:00:00.564,-0.00357626657932997,0,
00:00:00.568,0.00105050951242447,0,
00:00:00.572,0.00364510179497302,0,
00:00:00.576,-0.001361622242257,0,
00:00:00.58,-0.00405819108709693,0,
00:00:00.584,-0.00101544021163136,0,
00:00:00.588,0.00800047907978296,0,
00:00:00.592,-0.00134386739227921,0,
00:00:00.596,-0.00529339537024498,0,
00:00:00.6,-0.00197423971258104,0,
00:00:00.604,0.00775183318182826,0,
00:00:00.608,-0.00105610012542456,0,
00:00:00.612,-0.00275775231420994,0,
00:00:00.616,-0.00568166235461831,0,
00:00:00.62,0.00612425850704312,0,
00:00:00.624,0.0043843574821949,0,
00:00:00.628,-0.00430531287565827,0,
00:00:00.632,-0.00305087910965085,0,
00:00:00.636,0.00430410914123058,0,
00:00:00.64,0.00218647695146501,0,
00:00:00.644,-0.00319290184415877,0,
00:00:00.648,-0.00679789762943983,0,
00:00:00.652,0.00555456103757024,0,
00:00:00.656,0.00450579496100545,0,
00:00:00.66,-0.00174760702066123,0,
00:00:00.664,-0.00456145592033863,0,
00:00:00.668,0.000820700253825635,0,
00:00:00.672,0.00397005910053849,0,
00:00:00.676,0.00120597530622035,0,
00:00:00.68,-0.00775043992325664,0,
00:00:00.684,0.00150739180389792,0,
00:00:00.688,0.0053285276517272,0,
00:00:00.692,-0.000160202092956752,0,
00:00:00.696,-0.00379057601094246,0,
00:00:00.7,-0.00142300047446042,0,
00:00:00.704,0.00531532941386104,0,
00:00:00.708,0.00226083328016102,0,
00:00:00.712,-0.00784866511821747,0,
00:00:00.716,-0.00136436941102147,0,
00:00:00.72,0.00650249281898141,0,
00:00:00.724,0.00316639221273363,0,
00:00:00.728,-0.00552419619634748,0,
00:00:00.732,-0.0035769606474787,0,
00:00:00.736,0.00446861702948809,0,
00:00:00.74,0.00477484334260225,0,
00:00:00.744,-0.00674813752993941,0,
00:00:00.748,-0.00619496824219823,0,
00:00:00.752,0.00703803915530443,0,
00:00:00.756,0.00538726197555661,0,
00:00:00.76,-0.00173435220494866,0,
00:00:00.764,-0.00507643911987543,0,
00:00:00.768,-0.00184003193862736,0,
00:00:00.772,0.00766573613509536,0,
00:00:00.776,-0.00125846825540066,0,
00:00:00.78,-0.0050130495801568,0,
00:00:00.784,-0.00171060115098953,0,
00:00:00.788,0.0078864311799407,0,
00:00:00.792,-0.00105784775223583,0,
00:00:00.796,-0.00491564767435193,0,
00:00:00.8,-0.00172494654543698,0,
00:00:00.804,0.00572978472337127,0,
00:00:00.808,0.00497960345819592,0,
00:00:00.812,-0.00728255277499557,0,
00:00:00.816,-0.00484809232875705,0,
00:00:00.82,0.00454805279150605,0,
00:00:00.824,0.00358835770748556,0,
00:00:00.828,-0.00386053486727178,0,
00:00:00.832,-0.00201678788289428,0,
00:00:00.836,0.00311210425570607,0,
00:00:00.84,0.0065961554646492,0,
00:00:00.844,-0.00574463466182351,0,
00:00:00.848,-0.0066849198192358,0,
00:00:00.852,0.00578988203778863,0,
00:00:00.856,0.00427827751263976,0,
00:00:00.86,-0.00222265161573887,0,
00:00:00.864,-0.00494624860584736,0,
00:00:00.868,-0.00137736333999783,0,
00:00:00.872,0.00813764799386263,0,
00:00:00.876,-0.000977776246145368,0,
00:00:00.88,-0.00496237585321069,0,
00:00:00.884,-0.00181545736268163,0,
00:00:00.888,0.00773579673841596,0,
00:00:00.892,0.000905184249859303,0,
00:00:00.896,-0.00900898315012455,0,
00:00:00.9,0.000701205572113395,0,
00:00:00.904,0.00526388082653284,0,
00:00:00.908,0.0023228523787111,0,
00:00:00.912,-0.00527764111757278,0,
00:00:00.916,-0.00275943451561034,0,
00:00:00.92,0.00519221369177103,0,
00:00:00.924,0.00297955959104002,0,
00:00:00.928,-0.00492375902831554,0,
00:00:00.932,-0.00284443399868906,0,
00:00:00.936,0.00488959765061736,0,
00:00:00.94,0.00270664878189564,0,
00:00:00.944,-0.00296276062726974,0,
00:00:00.948,-0.00685359723865986,0,
00:00:00.952,0.00327072036452591,0,
00:00:00.956,0.00834486912935972,0,
00:00:00.96,-0.00428166752681136,0,
00:00:00.964,-0.00407213950529695,0,
00:00:00.968,0.00149167352356017,0,
00:00:00.972,0.0061065386980772,0,
00:00:00.976,-0.00324003119021654,0,
00:00:00.98,-0.00580153334885836,0,
00:00:00.984,0.000740967516321689,0,
00:00:00.988,0.00471217231824994,0,
00:00:00.992,2.34241688303882E-05,0,
00:00:00.996,-0.00313555705361068,0,
00:00:01,-0.000800800684373826,0,
00:00:01.004,0.00768405431881547,0,
00:00:01.008,0.000227952157729305,0,
00:00:01.012,-0.0076717920601368,0,
00:00:01.016,-0.0037895985879004,0,
00:00:01.02,0.00345794018357992,0,
00:00:01.024,0.0080301221460104,0,
00:00:01.028,-0.00432950956746936,0,
00:00:01.032,-0.00384742277674377,0,
00:00:01.036,0.00176917272619903,0,
00:00:01.04,0.0062650996260345,0,
00:00:01.044,-0.00531998323276639,0,
00:00:01.048,-0.00393925607204437,0,
00:00:01.052,0.00224665645509958,0,
00:00:01.056,0.00479396479204297,0,
00:00:01.06,-0.000851178891025484,0,
00:00:01.064,-0.00414484879001975,0,
00:00:01.068,0.000684110564179718,0,
00:00:01.072,0.00358642288483679,0,
00:00:01.076,-0.00119614612776786,0,
00:00:01.08,-0.00382297043688595,0,
00:00:01.084,0.00123972806613892,0,
00:00:01.088,0.00609659031033516,0,
00:00:01.092,-0.00300772418268025,0,
00:00:01.096,-0.00553729617968202,0,
00:00:01.1,-0.00119601876940578,0,
00:00:01.104,0.00666820770129561,0,
00:00:01.108,0.00362227112054825,0,
00:00:01.112,-0.00506822625175118,0,
00:00:01.116,-0.00337509135715663,0,
00:00:01.12,0.00437720213085413,0,
00:00:01.124,0.0024367484729737,0,
00:00:01.128,-0.00504386471584439,0,
00:00:01.132,-0.00264734355732799,0,
00:00:01.136,0.00312134972773492,0,
00:00:01.14,0.00700220232829452,0,
00:00:01.144,-0.00526746874675155,0,
00:00:01.148,-0.00428930064663291,0,
00:00:01.152,0.00183158880099654,0,
00:00:01.156,0.00660825707018375,0,
00:00:01.16,-0.00287846964783967,0,
00:00:01.164,-0.00776619091629982,0,
00:00:01.168,0.00262579810805619,0,
00:00:01.172,0.00825680140405893,0,
00:00:01.176,-0.00399940554052591,0,
00:00:01.18,-0.00371619570069015,0,
00:00:01.184,-0.000358843099093065,0,
00:00:01.188,0.00812016800045967,0,
00:00:01.192,0.000382707541575655,0,
00:00:01.196,-0.00773575529456139,0,
00:00:01.2,-0.00184683094266802,0,
00:00:01.204,0.00346740102395415,0,
00:00:01.208,0.000249353935942054,0,
00:00:01.212,-0.00215025944635272,0,
00:00:01.216,0.000168168378877454,0,
00:00:01.22,0.00611908733844757,0,
00:00:01.224,0.00220617395825684,0,
00:00:01.228,-0.00633620284497738,0,
00:00:01.232,-0.00397355249151587,0,
00:00:01.236,0.00445095682516694,0,
00:00:01.24,0.00288442079909146,0,
00:00:01.244,-0.00248820683918893,0,
00:00:01.248,-0.00640346901491284,0,
00:00:01.252,0.00559137156233191,0,
00:00:01.256,0.00431422051042318,0,
00:00:01.26,-0.00199200236238539,0,
00:00:01.264,-0.00680815195664763,0,
00:00:01.268,0.00274130073376,0,
00:00:01.272,0.00772458221763372,0,
00:00:01.276,-0.00259367562830448,0,
00:00:01.28,-0.00819537229835987,0,
00:00:01.284,0.00197580130770803,0,
00:00:01.288,0.0057158675044775,0,
00:00:01.292,0.0019985013641417,0,
00:00:01.296,-0.00588434468954802,0,
00:00:01.3,-0.00321900518611073,0,
00:00:01.304,0.00713072624057531,0,
00:00:01.308,-0.00093828875105828,0,
00:00:01.312,-0.00434440048411489,0,
00:00:01.316,-0.00116767454892397,0,
00:00:01.32,0.00601224228739738,0,
00:00:01.324,0.00288725574500859,0,
00:00:01.328,-0.00550058390945196,0,
00:00:01.332,-0.00342397624626756,0,
00:00:01.336,0.00458465004339814,0,
00:00:01.34,0.00271021178923547,0,
00:00:01.344,-0.00484709441661835,0,
00:00:01.348,-0.00465496815741062,0,
00:00:01.352,0.00713630439713597,0,
00:00:01.356,0.00451152119785547,0,
00:00:01.36,-0.00275457091629505,0,
00:00:01.364,-0.0077550052665174,0,
00:00:01.368,0.00215719640254974,0,
00:00:01.372,0.00557358236983418,0,
00:00:01.376,0.00173870148137212,0,
00:00:01.38,-0.00814629532396793,0,
00:00:01.384,-0.00128175446297973,0,
00:00:01.388,0.0088531281799078,0,
00:00:01.392,-0.000637979537714273,0,
00:00:01.396,-0.00508790696039796,0,
00:00:01.4,-0.00215119658969343,0,
00:00:01.404,0.00745092704892159,0,
00:00:01.408,0.000797053100541234,0,
00:00:01.412,-0.00895197596400976,0,
00:00:01.416,-0.00123732862994075,0,
00:00:01.42,0.00736824655905366,0,
00:00:01.424,0.00403529359027743,0,
00:00:01.428,-0.00509418966248631,0,
00:00:01.432,-0.00363579578697681,0,
00:00:01.436,0.00412197969853878,0,
00:00:01.44,0.00231941137462854,0,
00:00:01.444,-0.0029389385599643,0,
00:00:01.448,-0.00658800033852458,0,
00:00:01.452,0.00564476335421205,0,
00:00:01.456,0.00448518618941307,0,
00:00:01.46,-0.00182516628410667,0,
00:00:01.464,-0.00671521201729774,0,
00:00:01.468,0.00275114132091403,0,
00:00:01.472,0.00768159050494432,0,
00:00:01.476,-0.00264911237172782,0,
00:00:01.48,-0.0082342866808176,0,
00:00:01.484,0.00196325802244246,0,
00:00:01.488,0.00572413112968206,0,
00:00:01.492,0.00201538228429854,0,
00:00:01.496,-0.00794545561075211,0,
00:00:01.5,0.000839171465486288,0,
00:00:01.504,0.00472126062959433,0,
00:00:01.508,0.00164320284966379,0,
00:00:01.512,-0.00570253748446703,0,
00:00:01.516,-0.00282075675204396,0,
00:00:01.52,0.00538883730769157,0,
00:00:01.524,0.00325230578891933,0,
00:00:01.528,-0.0047192363999784,0,
00:00:01.532,-0.00276590930297971,0,
00:00:01.536,0.0048612761311233,0,
00:00:01.54,0.00262812082655728,0,
00:00:01.544,-0.00511272577568889,0,
00:00:01.548,-0.00284232338890433,0,
00:00:01.552,0.0050105550326407,0,
00:00:01.556,0.00284895300865173,0,
00:00:01.56,-0.00286750844679773,0,
00:00:01.564,-0.00682621309533715,0,
00:00:01.568,0.00324679655022919,0,
00:00:01.572,0.00622543878853321,0,
00:00:01.576,-0.000267032592091709,0,
00:00:01.58,-0.00442204903811216,0,
00:00:01.584,-0.00204701395705342,0,
00:00:01.588,0.00707422662526369,0,
00:00:01.592,-0.00177009345497936,0,
00:00:01.596,-0.00521974777802825,0,
00:00:01.6,-0.00162726221606135,0,
00:00:01.604,0.00811541080474854,0,
00:00:01.608,-0.000836657651234418,0,
00:00:01.612,-0.00479186791926622,0,
00:00:01.616,-0.00171059358399361,0,
00:00:01.62,0.00567412609234452,0,
00:00:01.624,0.00283110048621893,0,
00:00:01.628,-0.00535875279456377,0,
00:00:01.632,-0.00322308763861656,0,
00:00:01.636,0.00473551172763109,0,
00:00:01.64,0.00276761106215417,0,
00:00:01.644,-0.00279308529570699,0,
00:00:01.648,-0.00668901670724154,0,
00:00:01.652,0.0033633301500231,0,
00:00:01.656,0.00628040265291929,0,
00:00:01.66,-0.000271527824224904,0,
00:00:01.664,-0.0065351533703506,0,
00:00:01.668,0.00196357280947268,0,
00:00:01.672,0.00671594357118011,0,
00:00:01.676,-0.00324030546471477,0,
00:00:01.68,-0.0062309242784977,0,
00:00:01.684,0.000276593375019729,0,
00:00:01.688,0.0044713350944221,0,
00:00:01.692,0.00212521571666002,0,
00:00:01.696,-0.00699660973623395,0,
00:00:01.7,-0.000253423204412684,0,
00:00:01.704,0.00928965117782354,0,
00:00:01.708,-0.000789111072663218,0,
00:00:01.712,-0.00554824853315949,0,
00:00:01.716,-0.00260966527275741,0,
00:00:01.72,0.00510813994333148,0,
00:00:01.724,0.00272955186665058,0,
00:00:01.728,-0.00512820854783058,0,
00:00:01.732,-0.00288827088661492,0,
00:00:01.736,0.00291602895595133,0,
00:00:01.74,0.00692081078886986,0,
00:00:01.744,-0.00523343915119767,0,
00:00:01.748,-0.00419861450791359,0,
00:00:01.752,0.00399380782619119,0,
00:00:01.756,0.00260453508235514,0,
00:00:01.76,-0.00254086335189641,0,
00:00:01.764,-0.00424811569973826,0,
00:00:01.768,0.00164145196322352,0,
00:00:01.772,0.00470386119559407,0,
00:00:01.776,-0.000528710603248328,0,
00:00:01.78,-0.00582699989899993,0,
00:00:01.784,0.00288101565092802,0,
00:00:01.788,0.00729733193293214,0,
00:00:01.792,-0.00315117230638862,0,
00:00:01.796,-0.0064945425838232,0,
00:00:01.8,-0.00216925400309265,0,
00:00:01.804,0.00616732612252235,0,
00:00:01.808,0.00365865929052234,0,
00:00:01.812,-0.00470661884173751,0,
00:00:01.816,-0.00296514970250428,0,
00:00:01.82,0.00464534945785999,0,
00:00:01.824,0.00250913971103728,0,
00:00:01.828,-0.00511631043627858,0,
00:00:01.832,-0.00277324253693223,0,
00:00:01.836,0.00509400013834238,0,
00:00:01.84,0.00290551222860813,0,
00:00:01.844,-0.00285081728361547,0,
00:00:01.848,-0.00683999853208661,0,
00:00:01.852,0.00529686268419027,0,
00:00:01.856,0.00422844663262367,0,
00:00:01.86,-0.00191908911801875,0,
00:00:01.864,-0.00667377188801765,0,
00:00:01.868,0.00285394093953073,0,
00:00:01.872,0.00777616025879979,0,
00:00:01.876,-0.00259993970394135,0,
00:00:01.88,-0.00615698006004095,0,
00:00:01.884,-0.00211482541635633,0,
00:00:01.888,0.00810113362967968,0,
00:00:01.892,-0.000591969059314579,0,
00:00:01.896,-0.00659820763394237,0,
00:00:01.9,0.00249479757621884,0,
00:00:01.904,0.00535397278144956,0,
00:00:01.908,0.00128741760272533,0,
00:00:01.912,-0.00855440460145473,0,
00:00:01.916,-0.00150284240953624,0,
00:00:01.92,0.00675193918868899,0,
00:00:01.924,0.00350837502628565,0,
00:00:01.928,-0.00529852136969566,0,
00:00:01.932,-0.00353113724850118,0,
00:00:01.936,0.00438157049939036,0,
00:00:01.94,0.00464368471875787,0,
00:00:01.944,-0.00685034319758415,0,
00:00:01.948,-0.00623690336942673,0,
00:00:01.952,0.00704921968281269,0,
00:00:01.956,0.00750048039481044,0,
00:00:01.96,-0.0057487110607326,0,
00:00:01.964,-0.00472257751971483,0,
00:00:01.968,0.00170305976644158,0,
00:00:01.972,0.00462504522874951,0,
00:00:01.976,-0.000752451189327985,0,
00:00:01.98,-0.00395368551835418,0,
00:00:01.984,-0.00124251504894346,0,
00:00:01.988,0.0076904627494514,0,
00:00:01.992,-0.00155912607442588,0,
00:00:01.996,-0.00535478070378304,0,
00:00:02,-0.00191618874669075,0,
00:00:02.004,0.00785619951784611,0,
00:00:02.008,-0.00096891907742247,0,
00:00:02.012,-0.00479366676881909,0,
00:00:02.016,-0.0016354521503672,0,
00:00:02.02,0.00576200475916266,0,
00:00:02.024,0.00288872537203133,0,
00:00:02.028,-0.00326775736175478,0,
00:00:02.032,-0.00729029066860676,0,
00:00:02.036,0.00504130311310291,0,
00:00:02.04,0.00421028072014451,0,
00:00:02.044,-0.00178303709253669,0,
00:00:02.048,-0.00650229165330529,0,
00:00:02.052,0.00504984054714441,0,
00:00:02.056,0.00376412412151694,0,
00:00:02.06,-0.00229161279276013,0,
00:00:02.064,-0.00681941537186503,0,
00:00:02.068,0.00291093857958913,0,
00:00:02.072,0.00793082267045975,0,
00:00:02.076,-0.00245301076211035,0,
00:00:02.08,-0.00815287046134472,0,
00:00:02.084,0.00194281910080463,0,
00:00:02.088,0.00565293245017529,0,
00:00:02.092,-0.000130716580315493,0,
00:00:02.096,-0.00393397407606244,0,
00:00:02.1,-0.00157455261796713,0,
00:00:02.104,0.0073251323774457,0,
00:00:02.108,-0.00176237302366644,0,
00:00:02.112,-0.00328486505895853,0,
00:00:02.116,-0.0037713130004704,0,
00:00:02.12,0.00428446941077709,0,
00:00:02.124,0.000929416797589511,0,
00:00:02.128,-0.002278194995597,0,
00:00:02.132,-0.000453700311481953,0,
00:00:02.136,0.00550540070980787,0,
00:00:02.14,0.00190479739103466,0,
00:00:02.144,-0.0062929904088378,0,
00:00:02.148,-0.0037282498087734,0,
00:00:02.152,0.00264306669123471,0,
00:00:02.156,0.0071059693582356,0,
00:00:02.16,-0.00485527655109763,0,
00:00:02.164,-0.0038679784629494,0,
00:00:02.168,0.00207962607964873,0,
00:00:02.172,0.00664920127019286,0,
00:00:02.176,-0.00297604943625629,0,
00:00:02.18,-0.00582710886374116,0,
00:00:02.184,-0.00152622058521956,0,
00:00:02.188,0.00855339225381613,0,
00:00:02.192,-0.000442018004832789,0,
00:00:02.196,-0.00463112164288759,0,
00:00:02.2,0.000297006277833134,0,
00:00:02.204,0.00351419090293348,0,
00:00:02.208,0.00101027952041477,0,
00:00:02.212,-0.00563649646937847,0,
00:00:02.216,-0.00239283638074994,0,
00:00:02.22,0.00580747704952955,0,
00:00:02.224,0.0034567245747894,0,
00:00:02.228,-0.00682120490819216,0,
00:00:02.232,-0.000949515029788017,0,
00:00:02.236,0.0063308235257864,0,
00:00:02.24,0.00269712274894118,0,
00:00:02.244,-0.00390418525785208,0,
00:00:02.248,-0.0078863138332963,0,
00:00:02.252,0.004767756909132,0,
00:00:02.256,0.00427495967596769,0,
00:00:02.26,-0.00152928207535297,0,
00:00:02.264,-0.00416139466688037,0,
00:00:02.268,0.00116106774657965,0,
00:00:02.272,0.00413166219368577,0,
00:00:02.276,-0.00088138721184805,0,
00:00:02.28,-0.00588284432888031,0,
00:00:02.284,0.00510750524699688,0,
00:00:02.288,0.0034571944270283,0,
00:00:02.292,-0.000584801775403321,0,
00:00:02.296,-0.00902168266475201,0,
00:00:02.3,0.00123583618551493,0,
00:00:02.304,0.00577999046072364,0,
00:00:02.308,0.00258163874968886,0,
00:00:02.312,-0.00735389860346913,0,
00:00:02.316,0.00114748533815145,0,
00:00:02.32,0.00469899363815784,0,
00:00:02.324,0.00141803594306111,0,
00:00:02.328,-0.00595941673964262,0,
00:00:02.332,-0.00299025885760784,0,
00:00:02.336,0.0032657184638083,0,
00:00:02.34,0.00527150370180607,0,
00:00:02.344,-0.00299892970360816,0,
00:00:02.348,-0.00252408534288406,0,
00:00:02.352,0.0040476662106812,0,
00:00:02.356,0.00159628561232239,0,
00:00:02.36,-0.00368937477469444,0,
00:00:02.364,-0.00492210406810045,0,
00:00:02.368,0.00158018304500729,0,
00:00:02.372,0.00505382567644119,0,
00:00:02.376,-7.51191691961139E-05,0,
00:00:02.38,-0.0055016134865582,0,
00:00:02.384,0.0050697922706604,0,
00:00:02.388,0.00318722287192941,0,
00:00:02.392,-0.0029520106036216,0,
00:00:02.396,-0.00515002105385065,0,
00:00:02.4,-0.00121030933223665,0,
00:00:02.404,0.00842813681811094,0,
00:00:02.408,0.00132196443155408,0,
00:00:02.412,-0.0068564135581255,0,
00:00:02.416,-0.00349819241091609,0,
00:00:02.42,0.00538689969107509,0,
00:00:02.424,0.0036354900803417,0,
00:00:02.428,-0.00430886400863528,0,
00:00:02.432,-0.00254335906356573,0,
00:00:02.436,0.00486140279099345,0,
00:00:02.44,0.00248912419192493,0,
00:00:02.444,-0.00527758477255702,0,
00:00:02.448,-0.00502900453284383,0,
00:00:02.452,0.00695357052609324,0,
00:00:02.456,0.00659416476264596,0,
00:00:02.46,-0.00669103115797043,0,
00:00:02.464,-0.00521747907623649,0,
00:00:02.468,0.00172831513918936,0,
00:00:02.472,0.00497031584382057,0,
00:00:02.476,-0.000354860443621874,0,
00:00:02.48,-0.00369024742394686,0,
00:00:02.484,0.000907440902665257,0,
00:00:02.488,0.00357173103839159,0,
00:00:02.492,-0.00134722457733005,0,
00:00:02.496,-0.00399049930274487,0,
00:00:02.5,-0.000941867183428258,0,
00:00:02.504,0.0080474391579628,0,
00:00:02.508,-0.00133211188949645,0,
00:00:02.512,-0.00738293258473277,0,
00:00:02.516,-2.16938915400533E-05,0,
00:00:02.52,0.00937557313591242,0,
00:00:02.524,0.0011888638837263,0,
00:00:02.528,-0.00972575880587101,0,
00:00:02.532,-0.00231846794486046,0,
00:00:02.536,0.00663191825151443,0,
00:00:02.54,0.00386119657196105,0,
00:00:02.544,-0.00483868457376957,0,
00:00:02.548,-0.0011497582308948,0,
00:00:02.552,0.000401400466216728,0,
00:00:02.556,0.00279696937650442,0,
00:00:02.56,-0.00149979093112051,0,
00:00:02.564,-0.0036065501626581,0,
00:00:02.568,0.00166181847453117,0,
00:00:02.572,0.00435319030657411,0,
00:00:02.576,-0.000919636280741543,0,
00:00:02.58,-0.00605045584961772,0,
00:00:02.584,0.00286623020656407,0,
00:00:02.588,0.00741890398785472,0,
00:00:02.592,-0.00299827638082206,0,
00:00:02.596,-0.00638740509748459,0,
00:00:02.6,-5.85455454711337E-05,0,
00:00:02.604,0.00416984921321273,0,
00:00:02.608,0.00197060056962073,0,
00:00:02.612,-0.00492389081045985,0,
00:00:02.616,-0.00214201188646257,0,
00:00:02.62,0.00567385414615273,0,
00:00:02.624,0.00315216253511608,0,
00:00:02.628,-0.00502076465636492,0,
00:00:02.632,-0.00306548504158854,0,
00:00:02.636,0.00468708947300911,0,
00:00:02.64,0.00260033179074526,0,
00:00:02.644,-0.00504352897405624,0,
00:00:02.648,-0.00274624209851027,0,
00:00:02.652,0.00300533603876829,0,
00:00:02.656,0.00692543247714639,0,
00:00:02.66,-0.0032126980368048,0,
00:00:02.664,-0.00831979513168335,0,
00:00:02.668,0.00220098462887108,0,
00:00:02.672,0.00602717790752649,0,
00:00:02.676,0.000129827880300581,0,
00:00:02.68,-0.00594135653227568,0,
00:00:02.684,0.00239561777561903,0,
00:00:02.688,0.00685467757284641,0,
00:00:02.692,-0.00334009900689125,0,
00:00:02.696,-0.00643100030720234,0,
00:00:02.7,-0.00197356496937573,0,
00:00:02.704,0.00843738857656717,0,
00:00:02.708,0.00179548293817788,0,
00:00:02.712,-0.00840780138969421,0,
00:00:02.716,-0.00121308281086385,0,
00:00:02.72,0.0070669730193913,0,
00:00:02.724,0.00366782047785819,0,
00:00:02.728,-0.00534472521394491,0,
00:00:02.732,-0.0037111050914973,0,
00:00:02.736,0.00418129470199347,0,
00:00:02.74,0.00243197591044009,0,
00:00:02.744,-0.00491932174190879,0,
00:00:02.748,-0.00249247997999191,0,
00:00:02.752,0.0032312530092895,0,
00:00:02.756,0.00704017840325832,0,
00:00:02.76,-0.00528732594102621,0,
00:00:02.764,-0.00433431938290596,0,
00:00:02.768,0.00179118721280247,0,
00:00:02.772,0.00451209582388401,0,
00:00:02.776,-0.000903095002286136,0,
00:00:02.78,-0.00403640605509281,0,
00:00:02.784,0.000841292669065297,0,
00:00:02.788,0.00370516162365675,0,
00:00:02.792,-0.00115073169581592,0,
00:00:02.796,-0.00383992958813906,0,
00:00:02.8,0.0011935536749661,0,
00:00:02.804,0.00397736020386219,0,
00:00:02.808,-0.0010556107154116,0,
00:00:02.812,-0.00389666459523141,0,
00:00:02.816,-0.0010070416610688,0,
00:00:02.82,0.00584008870646358,0,
00:00:02.824,0.00468032108619809,0,
00:00:02.828,-0.00767122022807598,0,
00:00:02.832,-0.00510125095024705,0,
00:00:02.836,0.00242085056379437,0,
00:00:02.84,0.00773569196462631,0,
00:00:02.844,-0.00404888624325395,0,
00:00:02.848,-0.00336905964650214,0,
00:00:02.852,0.00421417271718383,0,
00:00:02.856,0.00234760390594602,0,
00:00:02.86,-0.00297992979176342,0,
00:00:02.864,-0.00668687978759408,0,
00:00:02.868,0.00345185538753867,0,
00:00:02.872,0.00636691274121404,0,
00:00:02.876,-0.00023108854657039,0,
00:00:02.88,-0.00446688756346703,0,
00:00:02.884,-0.00212136935442686,0,
00:00:02.888,0.0070139947347343,0,
00:00:02.892,-0.00179634185042232,0,
00:00:02.896,-0.00521485507488251,0,
00:00:02.9,-0.00160623260308057,0,
00:00:02.904,0.00813686940819025,0,
00:00:02.908,-0.000824148242827505,0,
00:00:02.912,-0.00478995684534311,0,
00:00:02.916,-0.00171569699887186,0,
00:00:02.92,0.00566711416468024,0,
00:00:02.924,0.00282598519697785,0,
00:00:02.928,-0.00536056142300367,0,
00:00:02.932,-0.00322218565270305,0,
00:00:02.936,0.00473761139437556,0,
00:00:02.94,0.00276950956322253,0,
00:00:02.944,-0.00486790016293526,0,
00:00:02.948,-0.00263790949247777,0,
00:00:02.952,0.00510527193546295,0,
00:00:02.956,0.00283942697569728,0,
00:00:02.96,-0.00500954687595367,0,
00:00:02.964,-0.00284609594382346,0,
00:00:02.968,0.00287021859548986,0,
00:00:02.972,0.00682767340913415,0,
00:00:02.976,-0.00324669480323792,0,
00:00:02.98,-0.00830195564776659,0,
00:00:02.984,0.00224144500680268,0,
00:00:02.988,0.00813925080001354,0,
00:00:02.992,-0.00182723498437554,0,
00:00:02.996,-0.00758353294804692,0,
00:00:03,0.00220774579793215,0,
00:00:03.004,0.00560919428244233,0,
00:00:03.008,0.00173060258384794,0,
00:00:03.012,-0.00821150280535221,0,
00:00:03.016,-0.00137920014094561,0,
00:00:03.02,0.00876259244978428,0,
00:00:03.024,-0.000693913258146495,0,
00:00:03.028,-0.00510339206084609,0,
00:00:03.032,-0.00213790568523109,0,
00:00:03.036,0.00539904925972223,0,
00:00:03.04,0.0007163270493038,0,
00:00:03.044,-0.00117421639151871,0,
00:00:03.048,-0.00544596649706364,0,
00:00:03.052,0.00538715627044439,0,
00:00:03.056,0.00552178826183081,0,
00:00:03.06,-0.0068692653439939,0,
00:00:03.064,-0.00477820495143533,0,
00:00:03.068,0.00232358835637569,0,
00:00:03.072,0.00538237486034632,0,
00:00:03.076,-0.000239990826230496,0,
00:00:03.08,-0.00588173186406493,0,
00:00:03.084,0.00267821550369263,0,
00:00:03.088,0.00711928028613329,0,
00:00:03.092,-0.00322322128340602,0,
00:00:03.096,-0.00646566646173596,0,
00:00:03.1,-0.00209001475013793,0,
00:00:03.104,0.00831930711865425,0,
00:00:03.108,-0.000350213493220508,0,
00:00:03.112,-0.00436898460611701,0,
00:00:03.116,-0.00151981483213603,0,
00:00:03.12,0.00771559961140156,0,
00:00:03.124,-0.00137482269201428,0,
00:00:03.128,-0.00518583506345749,0,
00:00:03.132,-0.00185338547453284,0,
00:00:03.136,0.00573879992589355,0,
00:00:03.14,0.00298918085172772,0,
00:00:03.144,-0.00313812540844083,0,
00:00:03.148,-0.0051234494894743,0,
00:00:03.152,0.00101963186170906,0,
00:00:03.156,0.00452433293685317,0,
00:00:03.16,-0.00243322411552072,0,
00:00:03.164,-0.00146569591015577,0,
00:00:03.168,0.00280912686139345,0,
00:00:03.172,0.00595408026129007,0,
00:00:03.176,-0.00418281182646751,0,
00:00:03.18,-0.00884009432047606,0,
00:00:03.184,0.00218776054680347,0,
00:00:03.188,0.00632722163572907,0,
00:00:03.192,0.000489434343762696,0,
00:00:03.196,-0.00362341036088765,0,
00:00:03.2,0.000490536913275719,0,
00:00:03.204,0.00515235913917422,0,
00:00:03.208,-0.0036278476472944,0,
00:00:03.212,-0.0056809582747519,0,
00:00:03.216,-0.000988310319371521,0,
00:00:03.22,0.00699739856645465,0,
00:00:03.224,0.00388328055851161,0,
00:00:03.228,-0.00495843729004264,0,
00:00:03.232,-0.0034007029607892,0,
00:00:03.236,0.00428340816870332,0,
00:00:03.24,0.00234332517720759,0,
00:00:03.244,-0.00509698037058115,0,
00:00:03.248,-0.00472987536340952,0,
00:00:03.252,0.00927148200571537,0,
00:00:03.256,0.000572843244299293,0,
00:00:03.26,-0.00232610502280295,0,
00:00:03.264,-0.00624574441462755,0,
00:00:03.268,0.00524823600426316,0,
00:00:03.272,0.00375207327306271,0,
00:00:03.276,-0.00240945536643267,0,
00:00:03.28,-0.00484137749299407,0,
00:00:03.284,0.000916887598577887,0,
00:00:03.288,0.00633981870487332,0,
00:00:03.292,-0.00255196657963097,0,
00:00:03.296,-0.00724597787484527,0,
00:00:03.3,0.00300046196207404,0,
00:00:03.304,0.00628117797896266,0,
00:00:03.308,-6.91526147420518E-05,0,
00:00:03.312,-0.00425683939829469,0,
00:00:03.316,7.87780663813464E-05,0,
00:00:03.32,0.0029687772039324,0,
00:00:03.324,0.000538740481715649,0,
00:00:03.328,-0.00581789575517178,0,
00:00:03.332,-0.0022939566988498,0,
00:00:03.336,0.006046989466995,0,
00:00:03.34,0.00368538405746222,0,
00:00:03.344,-0.00461691617965698,0,
00:00:03.348,-0.00498413946479559,0,
00:00:03.352,0.00660854438319802,0,
00:00:03.356,0.00616419268772006,0,
00:00:03.36,-0.00698821293190122,0,
00:00:03.364,-0.0073859584517777,0,
00:00:03.368,0.00584588386118412,0,
00:00:03.372,0.00684378994628787,0,
00:00:03.376,-0.00575849693268538,0,
00:00:03.38,-0.00639915047213435,0,
00:00:03.384,0.00415877532213926,0,
00:00:03.388,0.00867046602070332,0,
00:00:03.392,-0.00245082331821322,0,
00:00:03.396,-0.00651385774835944,0,
00:00:03.4,-0.000516792992129922,0,
00:00:03.404,0.0037276188377291,0,
00:00:03.408,-0.000338079320499673,0,
00:00:03.412,-0.002953045303002,0,
00:00:03.416,-0.000365863990737125,0,
00:00:03.42,0.00808562058955431,0,
00:00:03.424,0.000439866707893088,0,
00:00:03.428,-0.00766102876514196,0,
00:00:03.432,-0.0039009228348732,0,
00:00:03.436,0.00539879221469164,0,
00:00:03.44,0.00388818536885083,0,
00:00:03.444,-0.00402230769395828,0,
00:00:03.448,-0.00235945172607899,0,
00:00:03.452,0.00490649463608861,0,
00:00:03.456,0.00243371073156595,0,
00:00:03.46,-0.00329220038838685,0,
00:00:03.464,-0.00707636866718531,0,
00:00:03.468,0.00320537108927965,0,
00:00:03.472,0.00632369983941317,0,
00:00:03.476,-0.000129266831208952,0,
00:00:03.48,-0.00432029785588384,0,
00:00:03.484,6.57955824863166E-05,0,
00:00:03.488,0.00300642568618059,0,
00:00:03.492,-0.00147774594370276,0,
00:00:03.496,-0.00379225891083479,0,
00:00:03.5,-0.000626888941042125,0,
00:00:03.504,0.00829983688890934,0,
00:00:03.508,-0.00122292514424771,0,
00:00:03.512,-0.00740379095077515,0,
00:00:03.516,0.00196627154946327,0,
00:00:03.52,0.00523520354181528,0,
00:00:03.524,0.00147032761014998,0,
00:00:03.528,-0.00619266601279378,0,
00:00:03.532,-0.00325262197293341,0,
00:00:03.536,0.005203977227211,0,
00:00:03.54,0.00330831087194383,0,
00:00:03.544,-0.00453741103410721,0,
00:00:03.548,-0.00258438265882432,0,
00:00:03.552,0.00496639451012015,0,
00:00:03.556,0.00264400406740606,0,
00:00:03.56,-0.00307992473244667,0,
00:00:03.564,-0.00487659266218543,0,
00:00:03.568,0.00124972965568304,0,
00:00:03.572,0.00463199848309159,0,
00:00:03.576,-0.000375206436729059,0,
00:00:03.58,-0.00352816819213331,0,
00:00:03.584,0.00107522332109511,0,
00:00:03.588,0.00572131108492613,0,
00:00:03.592,-0.00335089839063585,0,
00:00:03.596,-0.00779238389804959,0,
00:00:03.6,0.00284787314012647,0,
00:00:03.604,0.00643130810931325,0,
00:00:03.608,0.0022728624753654,0,
00:00:03.612,-0.00808653514832258,0,
00:00:03.616,0.000512799539137632,0,
00:00:03.62,0.00649668043479323,0,
00:00:03.624,-0.00256633991375566,0,
00:00:03.628,-0.00537739647552371,0,
00:00:03.632,-0.00127264624461532,0,
00:00:03.636,0.00650941533967853,0,
00:00:03.64,0.00350512284785509,0,
00:00:03.644,-0.00509674195200205,0,
00:00:03.648,-0.00333189661614597,0,
00:00:03.652,0.0044474508613348,0,
00:00:03.656,0.00249420385807753,0,
00:00:03.66,-0.00501800375059247,0,
00:00:03.664,-0.00265091308392584,0,
00:00:03.668,0.00517789227887988,0,
00:00:03.672,0.00293093756772578,0,
00:00:03.676,-0.00287047703750432,0,
00:00:03.68,-0.00687756575644016,0,
00:00:03.684,0.00318918679840863,0,
00:00:03.688,0.00826467294245958,0,
00:00:03.692,-0.00225089979358017,0,
00:00:03.696,-0.0060525992885232,0,
00:00:03.7,-0.00220578256994486,0,
00:00:03.704,0.00585556542500854,0,
00:00:03.708,0.00123879406601191,0,
00:00:03.712,-0.00294869975186884,0,
00:00:03.716,0.000701952900271863,0,
00:00:03.72,0.00291540729813278,0,
00:00:03.724,-0.0019428072264418,0,
00:00:03.728,-0.00426010973751545,0,
00:00:03.732,-0.000883674831129611,0,
00:00:03.736,0.00828362070024014,0,
00:00:03.74,0.000987758161500096,0,
00:00:03.744,-0.00713644502684474,0,
00:00:03.748,-0.0056881383061409,0,
00:00:03.752,0.00947743747383356,0,
00:00:03.756,0.0034181596711278,0,
00:00:03.76,-0.00566144427284598,0,
00:00:03.764,-0.00350050698034465,0,
00:00:03.768,0.0046832556836307,0,
00:00:03.772,0.00285737519152462,0,
00:00:03.776,-0.00476595433428884,0,
00:00:03.78,-0.00467257434502244,0,
00:00:03.784,0.00705295940861106,0,
00:00:03.788,0.00649311346933246,0,
00:00:03.792,-0.00686956429854035,0,
00:00:03.796,-0.00536623923107982,0,
00:00:03.8,0.00166026072110981,0,
00:00:03.804,0.00497851334512234,0,
00:00:03.808,0.00177016598172486,0,
00:00:03.812,-0.00768923154100776,0,
00:00:03.816,0.00127215404063463,0,
00:00:03.82,0.00504258600994945,0,
00:00:03.824,-0.000339066871674731,0,
00:00:03.828,-0.00382243818603456,0,
00:00:03.832,-0.00135159166529775,0,
00:00:03.836,0.0074937678873539,0,
00:00:03.84,0.000362899096217006,0,
00:00:03.844,-0.00738541269674897,0,
00:00:03.848,-0.0035278822761029,0,
00:00:03.852,0.00567301316186786,0,
00:00:03.856,0.00398862641304731,0,
00:00:03.86,-0.0040660323575139,0,
00:00:03.864,-0.00246856966987252,0,
00:00:03.868,0.00480599002912641,0,
00:00:03.872,0.00238137063570321,0,
00:00:03.876,-0.00329392589628696,0,
00:00:03.88,-0.00704777427017689,0,
00:00:03.884,0.00531518366187811,0,
00:00:03.888,0.00437096646055579,0,
00:00:03.892,-0.00176511832978576,0,
00:00:03.896,-0.00657917512580752,0,
00:00:03.9,0.00287323258817196,0,
00:00:03.904,0.00774315511807799,0,
00:00:03.908,-0.00264933612197638,0,
00:00:03.912,-0.00827051792293787,0,
00:00:03.916,0.00192154757678509,0,
00:00:03.92,0.00569714000448585,0,
00:00:03.924,-6.71840316499583E-05,0,
00:00:03.928,-0.00388640724122524,0,
00:00:03.932,-0.00155673897825181,0,
00:00:03.936,0.00731790252029896,0,
00:00:03.94,-0.00178113905712962,0,
00:00:03.944,-0.00537809543311596,0,
00:00:03.948,-0.00180517486296594,0,
00:00:03.952,0.00800188723951578,0,
00:00:03.956,0.00121181644499302,0,
00:00:03.96,-0.00880817417055368,0,
00:00:03.964,-0.00132114172447473,0,
00:00:03.968,0.00718368869274855,0,
00:00:03.972,0.00386951165273786,0,
00:00:03.976,-0.00310259498655796,0,
00:00:03.98,-0.00561159709468484,0,
00:00:03.984,0.000452815467724577,0,
00:00:03.988,0.00624998984858394,0,
00:00:03.992,-0.0023926270660013,0,
00:00:03.996,-0.00701582804322243,0,
00:00:04,0.00316925416700542,0,
00:00:04.004,0.00841532740741968,0,
00:00:04.008,-0.00207669497467577,0,
00:00:04.012,-0.00804640166461468,0,
00:00:04.016,0.00181289832107723,0,
00:00:04.02,0.00542135396972299,0,
00:00:04.024,-0.000332041876390576,0,
00:00:04.028,-0.00403552548959851,0,
00:00:04.032,-0.0015758597292006,0,
00:00:04.036,0.00738245993852615,0,
00:00:04.04,-0.00169548310805112,0,
00:00:04.044,-0.00531686376780272,0,
00:00:04.048,-0.00178447831422091,0,
00:00:04.052,0.00591424619778991,0,
00:00:04.056,0.00316135492175817,0,
00:00:04.06,-0.00303740985691547,0,
00:00:04.064,-0.00718182977288961,0,
00:00:04.068,0.00710827298462391,0,
00:00:04.072,0.00216148211620748,0,
00:00:04.076,-0.00558060966432095,0,
00:00:04.08,-0.00267743458971381,0,
00:00:04.084,0.00347327161580324,0,
00:00:04.088,0.00531899556517601,0,
00:00:04.092,-0.00101325160358101,0,
00:00:04.096,-0.00465023657307029,0,
00:00:04.1,0.000196662891539745,0,
00:00:04.104,0.00539858546108007,0,
00:00:04.108,-0.00318778096698225,0,
00:00:04.112,-0.00740352971479297,0,
00:00:04.116,0.00113136903382838,0,
00:00:04.12,0.01067228987813,0,
00:00:04.124,-0.000126183193060569,0,
00:00:04.128,-0.00559973390772939,0,
00:00:04.132,-0.00303661730140448,0,
00:00:04.136,0.00466503296047449,0,
00:00:04.14,0.00248066894710064,0,
00:00:04.144,-0.00514919590204954,0,
00:00:04.148,-0.00276335538364947,0,
00:00:04.152,0.00514995213598013,0,
00:00:04.156,0.00297993188723922,0,
00:00:04.16,-0.00486514111980796,0,
00:00:04.164,-0.0027575979474932,0,
00:00:04.168,0.00496536679565907,0,
00:00:04.172,0.00274773663841188,0,
00:00:04.176,-0.00295792194083333,0,
00:00:04.18,-0.0068715107627213,0,
00:00:04.184,0.00324728642590344,0,
00:00:04.188,0.00832823570817709,0,
00:00:04.192,-0.00428723311051726,0,
00:00:04.196,-0.00406888127326965,0,
00:00:04.2,0.00149866961874068,0,
00:00:04.204,0.0040369238704443,0,
00:00:04.208,-0.00126168329734355,0,
00:00:04.212,-0.00415960233658552,0,
00:00:04.216,0.000916106218937784,0,
00:00:04.22,0.00386730767786503,0,
00:00:04.224,-0.00100555771496147,0,
00:00:04.228,-0.00376643426716328,0,
00:00:04.232,-0.000882040534634143,0,
00:00:04.236,0.00798571947962046,0,
00:00:04.24,0.000637381395790726,0,
00:00:04.244,-0.00944499298930168,0,
00:00:04.248,-0.00170182238798589,0,
00:00:04.252,0.00920523703098297,0,
00:00:04.256,-1.41776117743575E-05,0,
00:00:04.26,-0.00461628660559654,0,
00:00:04.264,-0.002003223169595,0,
00:00:04.268,0.00732713332399726,0,
00:00:04.272,0.000557811348699033,0,
00:00:04.276,-0.00708457874134183,0,
00:00:04.28,-0.00331521639600396,0,
00:00:04.284,0.00365323526784778,0,
00:00:04.288,0.00589669635519385,0,
00:00:04.292,-0.00046232869499363,0,
00:00:04.296,-0.00436093611642718,0,
00:00:04.3,0.000202901879674755,0,
00:00:04.304,0.0031577474437654,0,
00:00:04.308,-0.0034840190783143,0,
00:00:04.312,-0.00184063205961138,0,
00:00:04.316,0.00301472516730428,0,
00:00:04.32,0.00642354786396027,0,
00:00:04.324,-0.00375482090748847,0,
00:00:04.328,-0.0086178183555603,0,
00:00:04.332,0.000119279706268571,0,
00:00:04.336,0.0102569470182061,0,
00:00:04.34,0.00208742404356599,0,
00:00:04.344,-0.00923554133623838,0,
00:00:04.348,-0.00229820539243519,0,
00:00:04.352,0.00843333825469017,0,
00:00:04.356,0.00155179970897734,0,
00:00:04.36,-0.00670842966064811,0,
00:00:04.364,-0.00347104528918862,0,
00:00:04.368,0.00534910056740046,0,
00:00:04.372,0.00359358661808074,0,
00:00:04.376,-0.0043233260512352,0,
00:00:04.38,-0.00252895662561059,0,
00:00:04.384,0.0028139513451606,0,
00:00:04.388,0.00656593078747392,0,
00:00:04.392,-0.00352143356576562,0,
00:00:04.396,-0.00846844259649515,0,
00:00:04.4,0.00220903498120606,0,
00:00:04.404,0.0081989960744977,0,
00:00:04.408,-0.0017392496811226,0,
00:00:04.412,-0.00751677714288235,0,
00:00:04.416,0.0022334516979754,0,
00:00:04.42,0.00559987686574459,0,
00:00:04.424,0.00170481856912374,0,
00:00:04.428,-0.00823583547025919,0,
00:00:04.432,0.000683550606481731,0,
00:00:04.436,0.00471066869795322,0,
00:00:04.44,0.00172181765083224,0,
00:00:04.444,-0.00560552207753062,0,
00:00:04.448,-0.00275461771525443,0,
00:00:04.452,0.00540854083374143,0,
00:00:04.456,0.00116062874440104,0,
00:00:04.46,-0.00277379178442061,0,
00:00:04.464,-0.00114908162504435,0,
00:00:04.468,0.00502665899693966,0,
00:00:04.472,0.0017866677371785,0,
00:00:04.476,-0.00405628047883511,0,
00:00:04.48,-0.00751515338197351,0,
00:00:04.484,0.00526752369478345,0,
00:00:04.488,0.00669174594804645,0,
00:00:04.492,-0.00549189420416951,0,
00:00:04.496,-0.00393274938687682,0,
00:00:04.5,0.00244976743124425,0,
00:00:04.504,0.00708312168717384,0,
00:00:04.508,-0.00273577985353768,0,
00:00:04.512,-0.00791176781058311,0,
00:00:04.516,0.00235494645312428,0,
00:00:04.52,0.0059434468857944,0,
00:00:04.524,0.00200698664411902,0,
00:00:04.528,-0.00810258369892836,0,
00:00:04.532,0.000652798509690911,0,
00:00:04.536,0.00666922237724066,0,
00:00:04.54,-0.00244830083101988,0,
00:00:04.544,-0.00534173659980297,0,
00:00:04.548,-0.00130043516401201,0,
00:00:04.552,0.00645645288750529,0,
00:00:04.556,0.00346017442643642,0,
00:00:04.56,-0.00304192770272493,0,
00:00:04.564,-0.00738094048574567,0,
00:00:04.568,0.00479536643251777,0,
00:00:04.572,0.00397491175681353,0,
00:00:04.576,-0.00191286881454289,0,
00:00:04.58,-0.00651523238047957,0,
00:00:04.584,0.00511067733168602,0,
00:00:04.588,0.0059177647344768,0,
00:00:04.592,-0.00628830399364233,0,
00:00:04.596,-0.00646877707913518,0,
00:00:04.6,0.00643997685983777,0,
00:00:04.604,0.00695156212896109,0,
00:00:04.608,-0.00600645458325744,0,
00:00:04.612,-0.00468571111559868,0,
00:00:04.616,-0.00017176489927806,0,
00:00:04.62,0.00889049656689167,0,
00:00:04.624,-0.000953990442212671,0,
00:00:04.628,-0.00539123779162765,0,
00:00:04.632,-0.00230743968859315,0,
00:00:04.636,0.00743736978620291,0,
00:00:04.64,0.000861322798300534,0,
00:00:04.644,-0.00887766387313604,0,
00:00:04.648,-0.00119351374451071,0,
00:00:04.652,0.00737320305779576,0,
00:00:04.656,0.0040144301019609,0,
00:00:04.66,-0.00512155797332525,0,
00:00:04.664,-0.00365532212890685,0,
00:00:04.668,0.0041154115460813,0,
00:00:04.672,0.00232325354591012,0,
00:00:04.676,-0.00500642554834485,0,
00:00:04.68,-0.00252955430187285,0,
00:00:04.684,0.00323934317566454,0,
00:00:04.688,0.00707119610160589,0,
00:00:04.692,-0.00318044773302972,0,
00:00:04.696,-0.00836763717234135,0,
00:00:04.7,0.00212682550773025,0,
00:00:04.704,0.00596942380070686,0,
00:00:04.708,0.000106430641608313,0,
00:00:04.712,-0.00385885825380683,0,
00:00:04.716,-0.0016340542351827,0,
00:00:04.72,0.00720877945423126,0,
00:00:04.724,-0.00186357391066849,0,
00:00:04.728,-0.00541009567677975,0,
00:00:04.732,0.000281681772321463,0,
00:00:04.736,0.00398228131234646,0,
00:00:04.74,0.00157502852380276,0,
00:00:04.744,-0.00525120366364717,0,
00:00:04.748,-0.00227548112161458,0,
00:00:04.752,0.00571848452091217,0,
00:00:04.756,0.00328539102338254,0,
00:00:04.76,-0.0048913904465735,0,
00:00:04.764,-0.00299335783347487,0,
00:00:04.768,0.00469492143020034,0,
00:00:04.772,0.00256721535697579,0,
00:00:04.776,-0.00508638983592391,0,
00:00:04.78,-0.00277641438879073,0,
00:00:04.784,0.00299552851356566,0,
00:00:04.788,0.00900751911103725,0,
00:00:04.792,-0.00725078349933028,0,
00:00:04.796,-0.00797516759485006,0,
00:00:04.8,0.00574726657941937,0,
00:00:04.804,0.00507134245708585,0,
00:00:04.808,-0.00133086275309324,0,
00:00:04.812,-0.00651939259842038,0,
00:00:04.816,0.000611210474744439,0,
00:00:04.82,0.00947442650794983,0,
00:00:04.824,0.000901185267139226,0,
00:00:04.828,-0.0101156076416373,0,
00:00:04.832,-0.000517404114361852,0,
00:00:04.836,0.00664955843240023,0,
00:00:04.84,-0.00176277535501868,0,
00:00:04.844,-0.00455182977020741,0,
00:00:04.848,-0.000806278199888766,0,
00:00:04.852,0.00862859468907118,0,
00:00:04.856,0.00129989231936634,0,
00:00:04.86,-0.00703346682712436,0,
00:00:04.864,-0.0057923523709178,0,
00:00:04.868,0.00927310157567263,0,
00:00:04.872,0.00323101133108139,0,
00:00:04.876,-0.00576355634257197,0,
00:00:04.88,-0.00558692403137684,0,
00:00:04.884,0.0067053334787488,0,
00:00:04.888,0.00455952947959304,0,
00:00:04.892,-0.00247099413536489,0,
00:00:04.896,-0.00747703714296222,0,
00:00:04.9,0.00437439139932394,0,
00:00:04.904,0.00566731579601765,0,
00:00:04.908,-0.00612430181354284,0,
00:00:04.912,-0.00404523033648729,0,
00:00:04.916,0.00270017399452627,0,
00:00:04.92,0.00744329579174519,0,
00:00:04.924,-0.00246392982080579,0,
00:00:04.928,-0.00780753511935472,0,
00:00:04.932,0.00231660692952573,0,
00:00:04.936,0.00583821721374989,0,
00:00:04.94,0.00190780567936599,0,
00:00:04.944,-0.00607987819239497,0,
00:00:04.948,-0.00340163917280734,0,
00:00:04.952,0.00495389522984624,0,
00:00:04.956,0.00310114398598671,0,
00:00:04.96,-0.0046326220035553,0,
00:00:04.964,-0.00257390690967441,0,
00:00:04.968,0.0050340467132628,0,
00:00:04.972,0.00271607120521367,0,
00:00:04.976,-0.00511194951832294,0,
00:00:04.98,-0.00289282016456127,0,
00:00:04.984,0.00287597393617034,0,
00:00:04.988,0.00686163734644651,0,
00:00:04.992,-0.00321079674176872,0,
00:00:04.996,-0.00828032102435827,0,
00:00:05,0.00224546086974442,0,
00:00:05.004,0.00813124794512987,0,
00:00:05.008,-0.00183882564306259,0,
00:00:05.012,-0.00759224081411958,0,
00:00:05.016,0.00220446474850178,0,
00:00:05.02,0.0076862764544785,0,
00:00:05.024,-0.000241296336753294,0,
00:00:05.028,-0.00985035207122564,0,
00:00:05.032,-0.00155455153435469,0,
00:00:05.036,0.0096054095774889,0,
00:00:05.04,0.00240860739722848,0,
00:00:05.044,-0.00852500926703215,0,
00:00:05.048,0.00035209659836255,0,
00:00:05.052,0.00251175696030259,0,
00:00:05.056,0.00373644847422838,0,
00:00:05.06,-0.00387744209729135,0,
00:00:05.064,-0.00252643600106239,0,
00:00:05.068,0.0045590759254992,0,
00:00:05.072,0.00216293823905289,0,
00:00:05.076,-0.00543248979374766,0,
00:00:05.08,-0.00290854764170945,0,
00:00:05.084,0.00513965496793389,0,
00:00:05.088,0.00304643111303449,0,
00:00:05.092,-0.00271047954447567,0,
00:00:05.096,-0.00675853481516242,0,
00:00:05.1,0.00530950957909226,0,
00:00:05.104,0.00419556302949786,0,
00:00:05.108,-0.00196447968482971,0,
00:00:05.112,-0.00670701684430242,0,
00:00:05.116,0.00284204678609967,0,
00:00:05.12,0.00570606114342809,0,
00:00:05.124,0.00146467122249305,0,
00:00:05.128,-0.00855376105755568,0,
00:00:05.132,0.000477555557154119,0,
00:00:05.136,0.00467237737029791,0,
00:00:05.14,0.00180564541369677,0,
00:00:05.144,-0.00755837932229042,0,
00:00:05.148,0.00139105145353824,0,
00:00:05.152,0.0051132058724761,0,
00:00:05.156,0.00176009978167713,0,
00:00:05.16,-0.00580412335693836,0,
00:00:05.164,-0.00301014212891459,0,
00:00:05.168,0.0052278540097177,0,
00:00:05.172,0.00317647750489414,0,
00:00:05.176,-0.00263709132559597,0,
00:00:05.18,-0.00676533579826355,0,
00:00:05.184,0.00525055266916752,0,
00:00:05.188,0.00412761885672808,0,
00:00:05.192,-0.00201005511917174,0,
00:00:05.196,-0.00672046979889274,0,
00:00:05.2,0.00285303196869791,0,
00:00:05.204,0.0078024067915976,0,
00:00:05.208,-0.00256906147114933,0,
00:00:05.212,-0.00821241270750761,0,
00:00:05.216,0.00194174272473902,0,
00:00:05.22,0.00776227749884129,0,
00:00:05.224,-0.00206660805270076,0,
00:00:05.228,-0.00555006833747029,0,
00:00:05.232,-0.0017446568235755,0,
00:00:05.236,0.00816071219742298,0,
00:00:05.24,-0.0007470574346371,0,
00:00:05.244,-0.00474012456834316,0,
00:00:05.248,-0.0017187224002555,0,
00:00:05.252,0.00770209589973092,0,
00:00:05.256,-0.00127427687402815,0,
00:00:05.26,-0.00506176752969623,0,
00:00:05.264,-0.00176880357321352,0,
00:00:05.268,0.00576400011777878,0,
00:00:05.272,0.00296885520219803,0,
00:00:05.276,-0.00525211170315742,0,
00:00:05.28,-0.00318037229590118,0,
00:00:05.284,0.00264676893129945,0,
00:00:05.288,0.00677878968417645,0,
00:00:05.292,-0.00316489115357399,0,
00:00:05.296,-0.00817517470568419,0,
00:00:05.3,0.00234165322035551,0,
00:00:05.304,0.00818145740777254,0,
00:00:05.308,-0.0018369157332927,0,
00:00:05.312,-0.00761938514187932,0,
00:00:05.316,0.00217196438461542,0,
00:00:05.32,0.00766457943245769,0,
00:00:05.324,-0.00232315203174949,0,
00:00:05.328,-0.00786936935037375,0,
00:00:05.332,0.00217336020432413,0,
00:00:05.336,0.00573968794196844,0,
00:00:05.34,0.00190288911107928,0,
00:00:05.344,-0.00601241877302527,0,
00:00:05.348,-0.00331263104453683,0,
00:00:05.352,0.00502110086381435,0,
00:00:05.356,0.00312830437906086,0,
00:00:05.36,-0.00464000552892685,0,
00:00:05.364,-0.00259819021448493,0,
00:00:05.368,0.00501030450686812,0,
00:00:05.372,0.00270280963741243,0,
00:00:05.376,-0.0051134149543941,0,
00:00:05.38,-0.00288677588105202,0,
00:00:05.384,0.00495958374813199,0,
00:00:05.388,0.00281604123301804,0,
00:00:05.392,-0.00287573714740574,0,
00:00:05.396,-0.00681648077443242,0,
00:00:05.4,0.00326284812763333,0,
00:00:05.404,0.00831406936049461,0,
00:00:05.408,-0.00223689712584019,0,
00:00:05.412,-0.00814108178019524,0,
00:00:05.416,0.00182245997712016,0,
00:00:05.42,0.007579087279737,0,
00:00:05.424,-0.00221008923836052,0,
00:00:05.428,-0.00560930138453841,0,
00:00:05.432,0.000346423941664398,0,
00:00:05.436,0.00416190316900611,0,
00:00:05.44,0.00171348685398698,0,
00:00:05.444,-0.00729730306193233,0,
00:00:05.448,-0.000362353399395943,0,
00:00:05.452,0.0093389255926013,0,
00:00:05.456,0.00140717008616775,0,
00:00:05.46,-0.00948890578001738,0,
00:00:05.464,-0.0022191887255758,0,
00:00:05.468,0.00657468615099788,0,
00:00:05.472,0.00371768767945468,0,
00:00:05.476,-0.00498074665665627,0,
00:00:05.48,-0.00331007898785174,0,
00:00:05.484,0.00236044730991125,0,
00:00:05.488,0.00446912180632353,0,
00:00:05.492,-0.00127854163292795,0,
00:00:05.496,-0.00649156142026186,0,
00:00:05.5,0.00469819223508239,0,
00:00:05.504,0.00546048022806644,0,
00:00:05.508,-0.00653030164539814,0,
00:00:05.512,-0.0043723457492888,0,
00:00:05.516,0.00257340329699218,0,
00:00:05.52,0.00541988061740994,0,
00:00:05.524,-0.000350343994796276,0,
00:00:05.528,-0.00395905505865812,0,
00:00:05.532,-0.00148680596612394,0,
00:00:05.536,0.0074099088087678,0,
00:00:05.54,-0.00174103141762316,0,
00:00:05.544,-0.00540111027657986,0,
00:00:05.548,-0.00186340743675828,0,
00:00:05.552,0.00586847867816687,0,
00:00:05.556,0.00315305544063449,0,
00:00:05.56,-0.0050965603441,0,
00:00:05.564,-0.00310679385438561,0,
00:00:05.568,0.00471714278683066,0,
00:00:05.572,0.00267855101265013,0,
00:00:05.576,-0.00288521707989275,0,
00:00:05.58,-0.00674339570105076,0,
00:00:05.584,0.00543014286085963,0,
00:00:05.588,0.00432650512084365,0,
00:00:05.592,-0.0039593642577529,0,
00:00:05.596,-0.00263898074626923,0,
00:00:05.6,0.00455681141465902,0,
00:00:05.604,0.00222378456965089,0,
00:00:05.608,-0.00330517324618995,0,
00:00:05.612,-0.00695310113951564,0,
00:00:05.616,0.00336355715990067,0,
00:00:05.62,0.00851396750658751,0,
00:00:05.624,-0.00206326018087566,0,
00:00:05.628,-0.00598100526258349,0,
00:00:05.632,-0.00223262468352914,0,
00:00:05.636,0.0057827103883028,0,
00:00:05.64,0.00324608548544347,0,
00:00:05.644,-0.00703634088858962,0,
00:00:05.648,0.00103305850643665,0,
00:00:05.652,0.00439926004037261,0,
00:00:05.656,0.00117578869685531,0,
00:00:05.66,-0.00603493861854076,0,
00:00:05.664,-0.00291824596934021,0,
00:00:05.668,0.00547803053632379,0,
00:00:05.672,0.00341602764092386,0,
00:00:05.676,-0.00458065187558532,0,
00:00:05.68,-0.0027009486220777,0,
00:00:05.684,0.00485545536503196,0,
00:00:05.688,0.00258342968299985,0,
00:00:05.692,-0.00516097154468298,0,
00:00:05.696,-0.0028719468973577,0,
00:00:05.7,0.00292875128798187,0,
00:00:05.704,0.00691041210666299,0,
00:00:05.708,-0.00318530458025634,0,
00:00:05.712,-0.00620360858738422,0,
00:00:05.716,0.000256310653639957,0,
00:00:05.72,0.00439690565690398,0,
00:00:05.724,-5.15379251737613E-05,0,
00:00:05.728,-0.00303472555242479,0,
00:00:05.732,-0.000639050675090402,0,
00:00:05.736,0.00781253352761269,0,
00:00:05.74,-0.001793795498088,0,
00:00:05.744,-0.0057091386988759,0,
00:00:05.748,-0.000118014526378829,0,
00:00:05.752,0.00161363242659718,0,
00:00:05.756,0.00344342389144003,0,
00:00:05.76,-0.00563792884349823,0,
00:00:05.764,-6.4040382312669E-06,0,
00:00:05.768,0.00870096869766712,0,
00:00:05.772,0.000515361316502094,0,
00:00:05.776,-0.0080049205571413,0,
00:00:05.78,-0.00431025587022305,0,
00:00:05.784,0.00309595232829452,0,
00:00:05.788,0.00794906727969646,0,
00:00:05.792,-0.00211657350882888,0,
00:00:05.796,-0.0076829637400806,0,
00:00:05.8,0.0022756417747587,0,
00:00:05.804,0.00780583638697863,0,
00:00:05.808,-0.00223767524585128,0,
00:00:05.812,-0.00786494929343462,0,
00:00:05.816,0.00212185527198017,0,
00:00:05.82,0.00775010557845235,0,
00:00:05.824,-0.00219503790140152,0,
00:00:05.828,-0.00777133274823427,0,
00:00:05.832,0.00221173604950309,0,
00:00:05.836,0.00572671415284276,0,
00:00:05.84,0.00186547148041427,0,
00:00:05.844,-0.00812383368611336,0,
00:00:05.848,0.000719189119990915,0,
00:00:05.852,0.00468638585880399,0,
00:00:05.856,0.00167291832622141,0,
00:00:05.86,-0.00564782693982124,0,
00:00:05.864,-0.00277490541338921,0,
00:00:05.868,0.005409836769104,0,
00:00:05.872,0.00324976723641157,0,
00:00:05.876,-0.00265866075642407,0,
00:00:05.88,-0.00683308811858296,0,
00:00:05.884,0.00518487626686692,0,
00:00:05.888,0.00409134570509195,0,
00:00:05.892,-0.00408934708684683,0,
00:00:05.896,-0.00265221972949803,0,
00:00:05.9,0.0025416121352464,0,
00:00:05.904,0.00842840597033501,0,
00:00:05.908,-0.00555935455486178,0,
00:00:05.912,-0.0121184876188636,0,
00:00:05.916,0.00413041096180677,0,
00:00:05.92,0.010790191590786,0,
00:00:05.924,-0.000482027011457831,0,
00:00:05.928,-0.0077299140393734,0,
00:00:05.932,0.00125577626749873,0,
00:00:05.936,0.00463225413113832,0,
00:00:05.94,-0.000884685257915407,0,
00:00:05.944,-0.00419179443269968,0,
00:00:05.948,0.000653609342407435,0,
00:00:05.952,0.00360548589378595,0,
00:00:05.956,-0.00113324075937271,0,
00:00:05.96,-0.00374690908938646,0,
00:00:05.964,-0.000777174311224371,0,
00:00:05.968,0.00602335808798671,0,
00:00:05.972,0.00475975964218378,0,
00:00:05.976,-0.00768590392544866,0,
00:00:05.98,-0.00516450963914394,0,
00:00:05.984,0.00443211896345019,0,
00:00:05.988,0.0057227835059166,0,
00:00:05.992,-0.00569666642695665,0,
00:00:05.996,-0.00560655072331429,0,
00:00:06,0.00497749866917729,0,
00:00:06.004,0.00908372923731804,0,
00:00:06.008,-0.00250018900260329,0,
00:00:06.012,-0.00891566928476095,0,
00:00:06.016,0.00109715247526765,0,
00:00:06.02,0.00721263512969017,0,
00:00:06.024,-0.002196263987571,0,
00:00:06.028,-0.00537156779319048,0,
00:00:06.032,0.0006167161045596,0,
00:00:06.036,0.00433678552508354,0,
00:00:06.04,-0.000317693309625611,0,
00:00:06.044,-0.00329675595276058,0,
00:00:06.048,-0.000780090631451458,0,
00:00:06.052,0.00780589785426855,0,
00:00:06.056,0.000358182500349358,0,
00:00:06.06,-0.00759200751781464,0,
00:00:06.064,-0.00377341639250517,0,
00:00:06.068,0.00550577463582158,0,
00:00:06.072,0.00393724953755736,0,
00:00:06.076,-0.0040281661786139,0,
00:00:06.08,-0.00447068130597472,0,
00:00:06.084,0.00684429565444589,0,
00:00:06.088,0.00612892024219036,0,
00:00:06.092,-0.00717044528573751,0,
00:00:06.096,-0.00550164887681603,0,
00:00:06.1,0.00375534454360604,0,
00:00:06.104,0.00310466391965747,0,
00:00:06.108,-0.00599324330687523,0,
00:00:06.112,0.000198596899281256,0,
00:00:06.116,0.00507666263729334,0,
00:00:06.12,0.00701083987951279,0,
00:00:06.124,-0.00442347070202231,0,
00:00:06.128,-0.00764854811131954,0,
00:00:06.132,-0.00270309927873313,0,
00:00:06.136,0.0103930188342929,0,
00:00:06.14,0.000107694031612482,0,
00:00:06.144,-0.0138016222044826,0,
00:00:06.148,0.00700347684323788,0,
00:00:06.152,0.00734452297911048,0,
00:00:06.156,-0.00036442291457206,0,
00:00:06.16,-0.00490053184330463,0,
00:00:06.164,-0.00454261014238,0,
00:00:06.168,0.0109230792149901,0,
00:00:06.172,0.00204555061645806,0,
00:00:06.176,-0.0209126714617014,0,
00:00:06.18,0.0082071116194129,0,
00:00:06.184,0.0202019680291414,0,
00:00:06.188,-0.0131999794393778,0,
00:00:06.192,-0.0114797241985798,0,
00:00:06.196,-0.00108360371086746,0,
00:00:06.2,0.00593514181673527,0,
00:00:06.204,0.0193639472126961,0,
00:00:06.208,0.00656397920101881,0,
00:00:06.212,-0.029886718839407,0,
00:00:06.216,-0.00704516796395183,0,
00:00:06.22,0.0141387907788157,0,
00:00:06.224,0.00108236237429082,0,
00:00:06.228,-0.00464263511821628,0,
00:00:06.232,0.00671437894925475,0,
00:00:06.236,0.0109106181189418,0,
00:00:06.24,-0.00624698167666793,0,
00:00:06.244,-0.0124959032982588,0,
00:00:06.248,0.00394070614129305,0,
00:00:06.252,0.00608027307316661,0,
00:00:06.256,-0.0162125043570995,0,
00:00:06.26,0.00391204236075282,0,
00:00:06.264,0.0172025430947542,0,
00:00:06.268,1.6031377526815E-05,0,
00:00:06.272,-0.00569694675505161,0,
00:00:06.276,-0.00913320574909449,0,
00:00:06.28,-0.00216543837450445,0,
00:00:06.284,0.0141534460708499,0,
00:00:06.288,0.00167475373018533,0,
00:00:06.292,-0.00652247667312622,0,
00:00:06.296,-0.00923733785748482,0,
00:00:06.3,-0.00123471301048994,0,
00:00:06.304,0.0195389371365309,0,
00:00:06.308,-0.00558683881536126,0,
00:00:06.312,-0.0118920402601361,0,
00:00:06.316,0.00345657905563712,0,
00:00:06.32,0.0158114228397608,0,
00:00:06.324,-0.00953250750899315,0,
00:00:06.328,-0.0153161576017737,0,
00:00:06.332,0.00640274165198207,0,
00:00:06.336,0.0131017304956913,0,
00:00:06.34,0.00431631365790963,0,
00:00:06.344,-0.0165655817836523,0,
00:00:06.348,0.000738100847229362,0,
00:00:06.352,0.00876482669264078,0,
00:00:06.356,0.0009886734187603,0,
00:00:06.36,-0.00928307231515646,0,
00:00:06.364,0.00460645463317633,0,
00:00:06.368,0.00124332797713578,0,
00:00:06.372,-0.00502779288217425,0,
00:00:06.376,-0.00568639347329736,0,
00:00:06.38,0.0104330657050014,0,
00:00:06.384,0.00698869023472071,0,
00:00:06.388,0.00376760773360729,0,
00:00:06.392,-0.0149241043254733,0,
00:00:06.396,-0.0105816107243299,0,
00:00:06.4,0.0099151162430644,0,
00:00:06.404,0.0110195558518171,0,
00:00:06.408,-0.00200337427668273,0,
00:00:06.412,-0.00902064610272646,0,
00:00:06.416,-0.00124420830979943,0,
00:00:06.42,0.0110468855127692,0,
00:00:06.424,-0.000556379498448223,0,
00:00:06.428,-0.0108924545347691,0,
00:00:06.432,-0.00417683459818363,0,
00:00:06.436,0.0137673262506723,0,
00:00:06.44,0.000459188042441383,0,
00:00:06.444,-0.00756764318794012,0,
00:00:06.448,-0.00294935284182429,0,
00:00:06.452,0.00851871352642775,0,
00:00:06.456,0.0023696138523519,0,
00:00:06.46,0.00238354061730206,0,
00:00:06.464,-0.00695859314873815,0,
00:00:06.468,-0.00545690814033151,0,
00:00:06.472,0.00319127924740314,0,
00:00:06.476,-0.00370155205018818,0,
00:00:06.48,-0.00435860501602292,0,
00:00:06.484,0.0135595556348562,0,
00:00:06.488,0.00550133129581809,0,
00:00:06.492,-0.00624892115592957,0,
00:00:06.496,-0.00759748974815011,0,
00:00:06.5,0.0088443448767066,0,
00:00:06.504,0.00158647447824478,0,
00:00:06.508,-0.0181613806635141,0,
00:00:06.512,0.00516102509573102,0,
00:00:06.516,0.0108854016289115,0,
00:00:06.52,0.00460034143179655,0,
00:00:06.524,-0.00211978540755808,0,
00:00:06.528,-0.0112047744914889,0,
00:00:06.532,-0.000275280501227826,0,
00:00:06.536,0.00742963049560785,0,
00:00:06.54,-0.00314100389368832,0,
00:00:06.544,-0.00432728277519345,0,
00:00:06.548,0.00899790227413177,0,
00:00:06.552,0.000131619366584346,0,
00:00:06.556,-0.0026685893535614,0,
00:00:06.56,-0.0022501612547785,0,
00:00:06.564,-0.00285189505666494,0,
00:00:06.568,0.00242450414225459,0,
00:00:06.572,0.00465814769268036,0,
00:00:06.576,-0.00308616482652724,0,
00:00:06.58,-0.000173746040672995,0,
00:00:06.584,0.00242627481929958,0,
00:00:06.588,0.000186065342859365,0,
00:00:06.592,-0.00589288119226694,0,
00:00:06.596,-0.00218922714702785,0,
00:00:06.6,0.00619511399418116,0,
00:00:06.604,0.00170790066476911,0,
00:00:06.608,-0.000545457587577403,0,
00:00:06.612,-0.00743043562397361,0,
00:00:06.616,0.00498672109097242,0,
00:00:06.62,0.0107936812564731,0,
00:00:06.624,-0.00527147389948368,0,
00:00:06.628,-0.00919121410697699,0,
00:00:06.632,-0.00340533861890435,0,
00:00:06.636,0.00440683681517839,0,
00:00:06.64,0.00672564469277859,0,
00:00:06.644,0.00835772044956684,0,
00:00:06.648,-0.0266590416431427,0,
00:00:06.652,0.0135603798553348,0,
00:00:06.656,0.00780295627191663,0,
00:00:06.66,-0.00396629050374031,0,
00:00:06.664,-0.00214789784513414,0,
00:00:06.668,0.00307345949113369,0,
00:00:06.672,-0.00425815675407648,0,
00:00:06.676,-0.00516245840117335,0,
00:00:06.68,-0.00212028785608709,0,
00:00:06.684,0.011807388626039,0,
00:00:06.688,0.00385491456836462,0,
00:00:06.692,-0.0065263737924397,0,
00:00:06.696,-0.00264762435108423,0,
00:00:06.7,0.00183089659549296,0,
00:00:06.704,0.000936861848458648,0,
00:00:06.708,-0.00474104611203074,0,
00:00:06.712,-0.00342848617583513,0,
00:00:06.716,0.00635260157287121,0,
00:00:06.72,0.0113426642492414,0,
00:00:06.724,-0.00713039468973875,0,
00:00:06.728,-0.00724104791879654,0,
00:00:06.732,-0.00196454697288573,0,
00:00:06.736,0.00639113411307335,0,
00:00:06.74,0.0016041916096583,0,
00:00:06.744,-0.00491715595126152,0,
00:00:06.748,0.000535637547727674,0,
00:00:06.752,0.0126429200172424,0,
00:00:06.756,-0.00405681552365422,0,
00:00:06.76,-0.0139226727187634,0,
00:00:06.764,-0.00292243529111147,0,
00:00:06.768,0.00651411572471261,0,
00:00:06.772,0.0145938694477081,0,
00:00:06.776,-0.0095420191064477,0,
00:00:06.78,-0.00773039180785418,0,
00:00:06.784,0.00399738270789385,0,
00:00:06.788,0.00888659618794918,0,
00:00:06.792,-0.00433003157377243,0,
00:00:06.796,-0.00656070606783032,0,
00:00:06.8,0.00511448364704847,0,
00:00:06.804,0.00347125460393727,0,
00:00:06.808,-0.00064511998789385,0,
00:00:06.812,-0.00907641276717186,0,
00:00:06.816,0.00124490319285542,0,
00:00:06.82,0.00585031695663929,0,
00:00:06.824,0.000598336337134242,0,
00:00:06.828,-0.00322859105654061,0,
00:00:06.832,0.00292549538426101,0,
00:00:06.836,-0.000817947962787002,0,
00:00:06.84,-0.00344124506227672,0,
00:00:06.844,0.00339896371588111,0,
00:00:06.848,-0.00225522997789085,0,
00:00:06.852,0.00106583500746638,0,
00:00:06.856,0.003222192870453,0,
00:00:06.86,-0.0017264363123104,0,
00:00:06.864,-0.00418853014707565,0,
00:00:06.868,0.00320812407881022,0,
00:00:06.872,0.00213184743188322,0,
00:00:06.876,-0.004591747187078,0,
00:00:06.88,-0.0040430654771626,0,
00:00:06.884,0.00764815462753177,0,
00:00:06.888,0.00678473291918635,0,
00:00:06.892,-0.00482304161414504,0,
00:00:06.896,-0.0117073431611061,0,
00:00:06.9,0.0058095189742744,0,
00:00:06.904,0.00388608779758215,0,
00:00:06.908,0.00326562137342989,0,
00:00:06.912,-0.00683550722897053,0,
00:00:06.916,0.000941255129873753,0,
00:00:06.92,0.00618213275447488,0,
00:00:06.924,-0.00315165449865162,0,
00:00:06.928,-0.00582651747390628,0,
00:00:06.932,0.000658645993098617,0,
00:00:06.936,0.00464875577017665,0,
00:00:06.94,1.39552121254383E-05,0,
00:00:06.944,-0.00309927575290203,0,
00:00:06.948,0.00132795819081366,0,
00:00:06.952,0.0015998127637431,0,
00:00:06.956,0.000480178889119998,0,
00:00:06.96,-0.000515753810759634,0,
00:00:06.964,-0.00293974322266877,0,
00:00:06.968,0.00547209940850735,0,
00:00:06.972,-0.00460117822512984,0,
00:00:06.976,-0.000977923627942801,0,
00:00:06.98,-0.00131477217655629,0,
00:00:06.984,0.00516613712534308,0,
00:00:06.988,0.00246563833206892,0,
00:00:06.992,-0.00536427367478609,0,
00:00:06.996,-0.00301088625565171,0,
00:00:07,0.00703707197681069,0,
00:00:07.004,-0.00116802845150232,0,
00:00:07.008,-0.0045481501147151,0,
00:00:07.012,0.000813193270005286,0,
00:00:07.016,-0.000101220030046534,0,
00:00:07.02,0.00734476605430245,0,
00:00:07.024,-0.00221543363295496,0,
00:00:07.028,-0.00787294935435057,0,
00:00:07.032,-5.90486997680273E-05,0,
00:00:07.036,0.0116787236183882,0,
00:00:07.04,0.0015567735536024,0,
00:00:07.044,-0.0131787462159991,0,
00:00:07.048,-0.00826216675341129,0,
00:00:07.052,0.0132558075711131,0,
00:00:07.056,0.0069443341344595,0,
00:00:07.06,-0.00661576073616743,0,
00:00:07.064,-0.00035136507358402,0,
00:00:07.068,0.00269839097745717,0,
00:00:07.072,8.36388790048659E-05,0,
00:00:07.076,-0.00420228717848659,0,
00:00:07.08,-0.0128317316994071,0,
00:00:07.084,0.0164536330848932,0,
00:00:07.088,0.00837063044309616,0,
00:00:07.092,-0.00811394955962896,0,
00:00:07.096,-0.00917069055140018,0,
00:00:07.1,0.00469341175630689,0,
00:00:07.104,0.00659879809245467,0,
00:00:07.108,-0.0053859381005168,0,
00:00:07.112,-0.00585150578990579,0,
00:00:07.116,0.0107818022370338,0,
00:00:07.12,0.000794361112639308,0,
00:00:07.124,-0.0117209330201149,0,
00:00:07.128,0.00241652107797563,0,
00:00:07.132,0.00498142139986157,0,
00:00:07.136,0.00478079542517662,0,
00:00:07.14,-0.002174889203161,0,
00:00:07.144,-0.00968077965080738,0,
00:00:07.148,0.00594236794859171,0,
00:00:07.152,0.0110647408291698,0,
00:00:07.156,-0.0100983073934913,0,
00:00:07.16,-0.0102305272594094,0,
00:00:07.164,0.00344197917729616,0,
00:00:07.168,0.00615573953837156,0,
00:00:07.172,0.00582231627777219,0,
00:00:07.176,-0.00159818422980607,0,
00:00:07.18,-0.00340657704509795,0,
00:00:07.184,-0.00444104103371501,0,
00:00:07.188,0.00346312811598182,0,
00:00:07.192,0.000363628700142726,0,
00:00:07.196,-0.00450819311663508,0,
00:00:07.2,0.0058448831550777,0,
00:00:07.204,0.00557378679513931,0,
00:00:07.208,-0.00499875983223319,0,
00:00:07.212,-0.00911090336740017,0,
00:00:07.216,0.00451431144028902,0,
00:00:07.22,0.00477599492296577,0,
00:00:07.224,-0.000850205367896706,0,
00:00:07.228,-0.0058060078881681,0,
00:00:07.232,0.0031942802015692,0,
00:00:07.236,0.00763930985704064,0,
00:00:07.24,-0.0050446530804038,0,
00:00:07.244,-0.00453330250456929,0,
00:00:07.248,0.00348607264459133,0,
00:00:07.252,0.00430979812517762,0,
00:00:07.256,-0.0046267444267869,0,
00:00:07.26,-0.00578741356730461,0,
00:00:07.264,-0.000420327618485317,0,
00:00:07.268,0.00768629228696227,0,
00:00:07.272,0.0022207647562027,0,
00:00:07.276,-0.000871170195750892,0,
00:00:07.28,-0.0018810419132933,0,
00:00:07.284,-0.00152312905993313,0,
00:00:07.288,0.00144621578510851,0,
00:00:07.292,-0.00596828758716583,0,
00:00:07.296,0.0007731489604339,0,
00:00:07.3,0.00768082635477185,0,
00:00:07.304,0.00529756536707282,0,
00:00:07.308,-0.0102071985602379,0,
00:00:07.312,-0.00399957876652479,0,
00:00:07.316,0.00751302717253566,0,
00:00:07.32,0.0016172262839973,0,
00:00:07.324,-0.00608266750350595,0,
00:00:07.328,-0.00695735029876232,0,
00:00:07.332,0.0138338711112738,0,
00:00:07.336,0.00296642212197185,0,
00:00:07.34,-0.0115906829014421,0,
00:00:07.344,0.0032923121470958,0,
00:00:07.348,0.00160576484631747,0,
00:00:07.352,0.00229633157141507,0,
00:00:07.356,-0.00245449412614107,0,
00:00:07.36,-0.00635846424847841,0,
00:00:07.364,0.00346019957214594,0,
00:00:07.368,0.0103485677391291,0,
00:00:07.372,-0.00643313908949494,0,
00:00:07.376,-0.00585918966680765,0,
00:00:07.38,-0.0028908783569932,0,
00:00:07.384,0.0150796985253692,0,
00:00:07.388,-0.000736264977604151,0,
00:00:07.392,-0.0120901139453053,0,
00:00:07.396,-0.00500231329351664,0,
00:00:07.4,0.011534676887095,0,
00:00:07.404,0.00272012781351805,0,
00:00:07.408,0.000687536492478102,0,
00:00:07.412,-0.00844810530543327,0,
00:00:07.416,0.000720111362170428,0,
00:00:07.42,0.00683553982526064,0,
00:00:07.424,-0.00232819584198296,0,
00:00:07.428,-0.00530386902391911,0,
00:00:07.432,0.000752974941860884,0,
00:00:07.436,0.00028607778949663,0,
00:00:07.44,0.00988626107573509,0,
00:00:07.444,-0.0101250512525439,0,
00:00:07.448,0.000616027100477368,0,
00:00:07.452,0.00477419793605804,0,
00:00:07.456,0.00149655761197209,0,
00:00:07.46,-0.00598801020532846,0,
00:00:07.464,-0.0030646244995296,0,
00:00:07.468,0.00529336743056774,0,
00:00:07.472,0.00330184283666313,0,
00:00:07.476,-0.00459515023976564,0,
00:00:07.48,-0.00264555541798472,0,
00:00:07.484,0.00493059959262609,0,
00:00:07.488,0.00263902358710766,0,
00:00:07.492,-0.00514024123549461,0,
00:00:07.496,-0.000804593961220235,0,
00:00:07.5,0.00093159027164802,0,
00:00:07.504,0.00317227537743747,0,
00:00:07.508,-0.00347351259551942,0,
00:00:07.512,0.000331765360897407,0,
00:00:07.516,0.00113337568473071,0,
00:00:07.52,0.0027265774551779,0,
00:00:07.524,-0.00408846652135253,0,
00:00:07.528,-0.00217455439269543,0,
00:00:07.532,0.00505987228825688,0,
00:00:07.536,0.00873588398098946,0,
00:00:07.54,-0.0154213262721896,0,
00:00:07.544,-0.00606916239485145,0,
00:00:07.548,0.00760929612442851,0,
00:00:07.552,0.0114725502207875,0,
00:00:07.556,0.000540217966772616,0,
00:00:07.56,-0.013270391151309,0,
00:00:07.564,0.000554416154045612,0,
00:00:07.568,0.0078826155513525,0,
00:00:07.572,-0.00155616633128375,0,
00:00:07.576,-0.00306980172172189,0,
00:00:07.58,-0.00355471298098564,0,
00:00:07.584,0.00234420550987124,0,
00:00:07.588,0.0029245198238641,0,
00:00:07.592,0.00344749167561531,0,
00:00:07.596,-0.00224956683814526,0,
00:00:07.6,-0.00275062769651413,0,
00:00:07.604,0.000821200548671186,0,
00:00:07.608,-0.00376902939751744,0,
00:00:07.612,-0.000710013264324516,0,
00:00:07.616,0.008567881770432,0,
00:00:07.62,-0.00288109644316137,0,
00:00:07.624,-0.00305904145352542,0,
00:00:07.628,-0.00246553355827928,0,
00:00:07.632,0.0138074420392513,0,
00:00:07.636,-0.000326750159729272,0,
00:00:07.64,-0.0193228609859943,0,
00:00:07.644,0.00121003086678684,0,
00:00:07.648,0.00485665537416935,0,
00:00:07.652,0.0113257970660925,0,
00:00:07.656,0.00113977363798767,0,
00:00:07.66,-0.00865694228559732,0,
00:00:07.664,-0.00745826680213213,0,
00:00:07.668,0.00837029237300158,0,
00:00:07.672,0.00112498959060758,0,
00:00:07.676,-0.00327709596604109,0,
00:00:07.68,0.000822364527266473,0,
00:00:07.684,0.00542248738929629,0,
00:00:07.688,-0.00349839357659221,0,
00:00:07.692,-0.00777505151927471,0,
00:00:07.696,-0.0011970434570685,0,
00:00:07.7,0.0146439811214805,0,
00:00:07.704,-0.000406624138122424,0,
00:00:07.708,-0.00695899408310652,0,
00:00:07.712,-0.00396596966311336,0,
00:00:07.716,0.00659817550331354,0,
00:00:07.72,0.00089822500012815,0,
00:00:07.724,-0.0062719346024096,0,
00:00:07.728,-0.00258947932161391,0,
00:00:07.732,0.0019296781392768,0,
00:00:07.736,0.0099236574023962,0,
00:00:07.74,0.00104283832479268,0,
00:00:07.744,-0.0122144855558872,0,
00:00:07.748,0.00132758996915072,0,
00:00:07.752,0.0101946387439966,0,
00:00:07.756,-0.0057873735204339,0,
00:00:07.76,-0.00515041640028358,0,
00:00:07.764,0.00168355065397918,0,
00:00:07.768,0.00291227037087083,0,
00:00:07.772,0.00374849420040846,0,
00:00:07.776,-0.00191723357420415,0,
00:00:07.78,-0.00669840909540653,0,
00:00:07.784,0.0048143076710403,0,
00:00:07.788,0.00359867396764457,0,
00:00:07.792,-0.00233249831944704,0,
00:00:07.796,-0.00468112621456385,0,
00:00:07.8,0.00104052142705768,0,
00:00:07.804,0.00637833494693041,0,
00:00:07.808,-0.00466130347922444,0,
00:00:07.812,-0.00325891841202974,0,
00:00:07.816,0.00261165876872838,0,
00:00:07.82,0.00478906417265534,0,
00:00:07.824,-0.00108788523357362,0,
00:00:07.828,-0.00442468607798219,0,
00:00:07.832,0.00257073738612235,0,
00:00:07.836,-0.000521302863489836,0,
00:00:07.84,-0.00081826007226482,0,
00:00:07.844,-0.00227345782332122,0,
00:00:07.848,0.00233105500228703,0,
00:00:07.852,0.00423899013549089,0,
00:00:07.856,-0.00143283267971128,0,
00:00:07.86,-0.000315918150590733,0,
00:00:07.864,-0.00745303370058537,0,
00:00:07.868,0.000242037349380553,0,
00:00:07.872,0.00793682876974344,0,
00:00:07.876,0.00171890878118575,0,
00:00:07.88,-0.00369879440404475,0,
00:00:07.884,0.00166310777422041,0,
00:00:07.888,0.00221578450873494,0,
00:00:07.892,-0.00994783826172352,0,
00:00:07.896,-0.00191196205560118,0,
00:00:07.9,0.00761693390086293,0,
00:00:07.904,0.00274543045088649,0,
00:00:07.908,-0.000287971313809976,0,
00:00:07.912,-0.0035863711964339,0,
00:00:07.916,0.000556547951418906,0,
00:00:07.92,0.00300695723854005,0,
00:00:07.924,0.000290413852781057,0,
00:00:07.928,-0.0081871272996068,0,
00:00:07.932,0.00158036535140127,0,
00:00:07.936,0.00776852108538151,0,
00:00:07.94,-0.00174499268177897,0,
00:00:07.944,-0.00726463831961155,0,
00:00:07.948,0.00458225188776851,0,
00:00:07.952,0.00377161358483136,0,
00:00:07.956,-0.00409235432744026,0,
00:00:07.96,-0.000408412364777178,0,
00:00:07.964,0.000745197583455592,0,
00:00:07.968,0.000655776355415583,0,
00:00:07.972,0.00226590083912015,0,
00:00:07.976,-0.00423260731622577,0,
00:00:07.98,-0.00204947823658586,0,
00:00:07.984,0.00528399366885424,0,
00:00:07.988,0.0047609293833375,0,
00:00:07.992,-0.0114048616960645,0,
00:00:07.996,-0.000740849180147052,0,
00:00:08,0.0100624226033688,0,
00:00:08.004,-2.8921453122166E-05,0,
00:00:08.008,-0.00313947908580303,0,
00:00:08.012,-0.00463416799902916,0,
00:00:08.016,0.00324510433711112,0,
00:00:08.02,0.002350855153054,0,
00:00:08.024,-0.0043738572858274,0,
00:00:08.028,0.000239071116084233,0,
00:00:08.032,0.00373016600497067,0,
00:00:08.036,-0.00275864778086543,0,
00:00:08.04,0.000696724222507328,0,
00:00:08.044,-0.00305952504277229,0,
00:00:08.048,0.00640624016523361,0,
00:00:08.052,0.00513544585555792,0,
00:00:08.056,-0.00584091991186142,0,
00:00:08.06,-0.00978018436580896,0,
00:00:08.064,0.000125983293401077,0,
00:00:08.068,0.0109488787129521,0,
00:00:08.072,0.00285764341242611,0,
00:00:08.076,-0.00877391081303358,0,
00:00:08.08,-0.00223067053593695,0,
00:00:08.084,0.00408142805099487,0,
00:00:08.088,0.00730321882292628,0,
00:00:08.092,-0.00560192996636033,0,
00:00:08.096,-0.00483248149976134,0,
00:00:08.1,0.00351982959546149,0,
00:00:08.104,0.00246240990236402,0,
00:00:08.108,-0.00655802525579929,0,
00:00:08.112,-4.77975881949533E-05,0,
00:00:08.116,0.00721642374992371,0,
00:00:08.12,0.00526304682716727,0,
00:00:08.124,-0.00583570171147585,0,
00:00:08.128,-0.00561561388894916,0,
00:00:08.132,-0.00796602852642536,0,
00:00:08.136,0.0115996357053518,0,
00:00:08.14,0.00782178249210119,0,
00:00:08.144,-0.0087596345692873,0,
00:00:08.148,-0.00354222906753421,0,
00:00:08.152,0.0030912144575268,0,
00:00:08.156,0.00704796845093369,0,
00:00:08.16,-0.00117755797691643,0,
00:00:08.164,-0.012507819570601,0,
00:00:08.168,0.00448899436742067,0,
00:00:08.172,0.00339736719615757,0,
00:00:08.176,0.0015145072247833,0,
00:00:08.18,-0.00214706594124436,0,
00:00:08.184,0.00318280514329672,0,
00:00:08.188,0.000832821300718933,0,
00:00:08.192,-0.0060354801826179,0,
00:00:08.196,-0.004896504804492,0,
00:00:08.2,0.0116975037381053,0,
00:00:08.204,0.00116221478674561,0,
00:00:08.208,-0.00974540691822767,0,
00:00:08.212,-0.00400250405073166,0,
00:00:08.216,0.0111950514838099,0,
00:00:08.22,0.00384338479489088,0,
00:00:08.224,-0.00629143370315433,0,
00:00:08.228,-0.00445218430832028,0,
00:00:08.232,0.00400068750604987,0,
00:00:08.236,0.000587288348469883,0,
00:00:08.24,-0.00259317783638835,0,
00:00:08.244,0.00355039350688457,0,
00:00:08.248,-0.00254906946793199,0,
00:00:08.252,0.00481511419638991,0,
00:00:08.256,-0.00308026256971061,0,
00:00:08.26,-0.00518533634021878,0,
00:00:08.264,0.00123054860159755,0,
00:00:08.268,0.00695096980780363,0,
00:00:08.272,-0.00413435883820057,0,
00:00:08.276,-0.0030191179830581,0,
00:00:08.28,0.00255537475459278,0,
00:00:08.284,0.00664478912949562,0,
00:00:08.288,-0.00329206348396838,0,
00:00:08.292,-0.00620583724230528,0,
00:00:08.296,-0.00386185571551323,0,
00:00:08.3,0.010447284206748,0,
00:00:08.304,0.00125710223801434,0,
00:00:08.308,-0.00434063980355859,0,
00:00:08.312,0.0016278080875054,0,
00:00:08.316,0.000557923864107579,0,
00:00:08.32,-0.00334127200767398,0,
00:00:08.324,-0.00395080074667931,0,
00:00:08.328,-0.00171670236159116,0,
00:00:08.332,0.0072995712980628,0,
00:00:08.336,0.0133871408179402,0,
00:00:08.34,-0.0117544271051884,0,
00:00:08.344,-0.00958394166082144,0,
00:00:08.348,0.00737929996103048,0,
00:00:08.352,0.00520108686760068,0,
00:00:08.356,-0.00681245839223266,0,
00:00:08.36,-0.00196755351498723,0,
00:00:08.364,-0.00291587109677494,0,
00:00:08.368,0.0123935341835022,0,
00:00:08.372,-0.00102186040021479,0,
00:00:08.376,-0.010335573926568,0,
00:00:08.38,0.00324655114673078,0,
00:00:08.384,0.0107999183237553,0,
00:00:08.388,-0.00218825950287282,0,
00:00:08.392,-0.0100934291258454,0,
00:00:08.396,-0.00862224493175745,0,
00:00:08.4,0.0102485278621316,0,
00:00:08.404,0.0105819907039404,0,
00:00:08.408,-0.0026167759206146,0,
00:00:08.412,-0.0115441484376788,0,
00:00:08.416,0.00470904400572181,0,
00:00:08.42,0.00670911651104689,0,
00:00:08.424,-0.00569393439218402,0,
00:00:08.428,-0.00428503612056375,0,
00:00:08.432,0.00218739151023328,0,
00:00:08.436,0.00495835719630122,0,
00:00:08.44,0.00144918553996831,0,
00:00:08.444,-0.00803952850401402,0,
00:00:08.448,-0.00101517955772579,0,
00:00:08.452,0.0132085820659995,0,
00:00:08.456,-0.00661606248468161,0,
00:00:08.46,-0.00647865422070026,0,
00:00:08.464,0.00108000985346735,0,
00:00:08.468,0.00515281222760677,0,
00:00:08.472,-0.0018594425637275,0,
00:00:08.476,-0.00122219242621213,0,
00:00:08.48,0.00065915216691792,0,
00:00:08.484,0.00769513286650181,0,
00:00:08.488,-0.00276902504265308,0,
00:00:08.492,-0.00463769724592566,0,
00:00:08.496,-0.00676882266998291,0,
00:00:08.5,0.0101785454899073,0,
00:00:08.504,-0.0010843895142898,0,
00:00:08.508,-0.00489566149190068,0,
00:00:08.512,-0.00125139020383358,0,
00:00:08.516,0.00426463037729263,0,
00:00:08.52,0.00527689186856151,0,
00:00:08.524,0.00262015033513308,0,
00:00:08.528,-0.00707753980532289,0,
00:00:08.532,-0.0116045121103525,0,
00:00:08.536,0.0113777341321111,0,
00:00:08.54,0.00143230438698083,0,
00:00:08.544,-0.00748726259917021,0,
00:00:08.548,0.00698607554659247,0,
00:00:08.552,0.00488906120881438,0,
00:00:08.556,-0.00267172721214592,0,
00:00:08.56,-0.00802524294704199,0,
00:00:08.564,0.00176624732557684,0,
00:00:08.568,0.00736136920750141,0,
00:00:08.572,-0.000328853406244889,0,
00:00:08.576,-0.00971715524792671,0,
00:00:08.58,0.000758814974687994,0,
00:00:08.584,0.00784571282565594,0,
00:00:08.588,-0.00118936377111822,0,
00:00:08.592,-0.00463421968743205,0,
00:00:08.596,-0.0033390608150512,0,
00:00:08.6,0.0121864695101976,0,
00:00:08.604,0.000658016069792211,0,
00:00:08.608,-0.0127204675227404,0,
00:00:08.612,0.00138842442538589,0,
00:00:08.616,0.00650053331628442,0,
00:00:08.62,0.00487038865685463,0,
00:00:08.624,-0.0075378306210041,0,
00:00:08.628,-0.00705253938212991,0,
00:00:08.632,0.00239147548563778,0,
00:00:08.636,0.0113487159833312,0,
00:00:08.64,-0.000213993436773308,0,
00:00:08.644,-0.00816147774457932,0,
00:00:08.648,0.00261987815611064,0,
00:00:08.652,0.00213015545159578,0,
00:00:08.656,-0.00266798306256533,0,
00:00:08.66,-0.00211220653727651,0,
00:00:08.664,-0.00224260869435966,0,
00:00:08.668,0.00730734644457698,0,
00:00:08.672,-0.000884636188857257,0,
00:00:08.676,-0.00636832136660814,0,
00:00:08.68,0.00497624184936285,0,
00:00:08.684,0.0057375212199986,0,
00:00:08.688,-0.00227880128659308,0,
00:00:08.692,-0.0125787546858191,0,
00:00:08.696,0.00302259624004364,0,
00:00:08.7,0.00606249691918492,0,
00:00:08.704,0.00561248604208231,0,
00:00:08.708,-0.00395097164437175,0,
00:00:08.712,-0.00370572530664504,0,
00:00:08.716,0.00327917421236634,0,
00:00:08.72,0.00140862178523093,0,
00:00:08.724,-0.00138180376961827,0,
00:00:08.728,-0.0106742503121495,0,
00:00:08.732,0.00418384373188019,0,
00:00:08.736,0.014508499763906,0,
00:00:08.74,-0.00899018812924623,0,
00:00:08.744,-0.00516954623162746,0,
00:00:08.748,0.0022393676918,0,
00:00:08.752,0.00516353361308575,0,
00:00:08.756,0.00151571584865451,0,
00:00:08.76,-0.00604821788147092,0,
00:00:08.764,-0.00520814955234528,0,
00:00:08.768,0.00928031280636787,0,
00:00:08.772,0.00291228503920138,0,
00:00:08.776,-0.00817812979221344,0,
00:00:08.78,-0.00171406485605985,0,
00:00:08.784,0.00845637265592813,0,
00:00:08.788,-0.00290969689376652,0,
00:00:08.792,-0.00311726634390652,0,
00:00:08.796,0.00166439940221608,0,
00:00:08.8,0.00576047971844673,0,
00:00:08.804,-0.00162477174308151,0,
00:00:08.808,-0.00807340815663338,0,
00:00:08.812,-0.00925698690116405,0,
00:00:08.816,0.0146354911848903,0,
00:00:08.82,0.00771316885948181,0,
00:00:08.824,-0.00280528841540217,0,
00:00:08.828,-0.00313042243942618,0,
00:00:08.832,-0.00959240086376667,0,
00:00:08.836,0.00366369495168328,0,
00:00:08.84,0.00440985709428787,0,
00:00:08.844,-0.00480787502601743,0,
00:00:08.848,0.000689776963554323,0,
00:00:08.852,0.00700868247076869,0,
00:00:08.856,0.00874356273561716,0,
00:00:08.86,-0.0187347680330276,0,
00:00:08.864,-0.00341977318748832,0,
00:00:08.868,0.014736769720912,0,
00:00:08.872,-0.00838589575141668,0,
00:00:08.876,-0.000936981523409486,0,
00:00:08.88,0.00890043377876282,0,
00:00:08.884,0.00522797461599112,0,
00:00:08.888,-0.00946416705846787,0,
00:00:08.892,-0.0136246029287577,0,
00:00:08.896,0.0048956386744976,0,
00:00:08.9,0.0124977771192789,0,
00:00:08.904,0.00301791890524328,0,
00:00:08.908,-0.0112116960808635,0,
00:00:08.912,0.00344333704560995,0,
00:00:08.916,0.00143334188032895,0,
00:00:08.92,-0.000121041040983982,0,
00:00:08.924,0.00128272059373558,0,
00:00:08.928,-0.00686036702245474,0,
00:00:08.932,0.00198333081789315,0,
00:00:08.936,0.00733866263180971,0,
00:00:08.94,-0.000384466286050156,0,
00:00:08.944,-0.0139243481680751,0,
00:00:08.948,0.0108789168298244,0,
00:00:08.952,-0.00315591716207564,0,
00:00:08.956,0.00417006015777588,0,
00:00:08.96,0.00186654215212911,0,
00:00:08.964,-0.00775880133733153,0,
00:00:08.968,0.000953774433583021,0,
00:00:08.972,0.00262463768012822,0,
00:00:08.976,-0.000621157872956246,0,
00:00:08.98,0.0060404590331018,0,
00:00:08.984,-0.00323670636862516,0,
00:00:08.988,-0.00613223761320114,0,
00:00:08.992,0.000283946137642488,0,
00:00:08.996,0.000244841066887602,0,
00:00:09,0.0101371267810464,0,
00:00:09.004,-0.00356579571962357,0,
00:00:09.008,-0.011289931833744,0,
00:00:09.012,0.00587110500782728,0,
00:00:09.016,0.00378573290072382,0,
00:00:09.02,0.00518345041200519,0,
00:00:09.024,-0.00688054086640477,0,
00:00:09.028,-0.00484563317149878,0,
00:00:09.032,0.00422816211357713,0,
00:00:09.036,0.00114049378316849,0,
00:00:09.04,-3.3450221962994E-05,0,
00:00:09.044,-0.00237426464445889,0,
00:00:09.048,-0.000314663222525269,0,
00:00:09.052,0.007703538518399,0,
00:00:09.056,-0.00210012216120958,0,
00:00:09.06,-0.00596902845427394,0,
00:00:09.064,-0.00436574080958962,0,
00:00:09.068,0.0139237428084016,0,
00:00:09.072,-0.00519581604748964,0,
00:00:09.076,-0.00778086064383388,0,
00:00:09.08,0.00510068237781525,0,
00:00:09.084,0.00434952788054943,0,
00:00:09.088,0.000338658748660237,0,
00:00:09.092,-0.00852896459400654,0,
00:00:09.096,0.00124339829199016,0,
00:00:09.1,0.00756882736459374,0,
00:00:09.104,-0.00388302281498909,0,
00:00:09.108,-0.00319189904257655,0,
00:00:09.112,0.000144508492667228,0,
00:00:09.116,0.00421568332239985,0,
00:00:09.12,0.0105346413329244,0,
00:00:09.124,-0.0126370377838612,0,
00:00:09.128,-0.010872008278966,0,
00:00:09.132,0.00869215000420809,0,
00:00:09.136,0.00994769390672445,0,
00:00:09.14,-0.00455069215968251,0,
00:00:09.144,-0.00487995613366365,0,
00:00:09.148,0.00502420775592327,0,
00:00:09.152,-0.000121627017506398,0,
00:00:09.156,-0.000267009396338835,0,
00:00:09.16,-0.014431213028729,0,
00:00:09.164,0.00338667212054133,0,
00:00:09.168,0.0146415224298835,0,
00:00:09.172,0.00211879867129028,0,
00:00:09.176,-0.00146999082062393,0,
00:00:09.18,-0.0104338005185127,0,
00:00:09.184,0.00182248873170465,0,
00:00:09.188,0.00283879856579006,0,
00:00:09.192,-0.00551190739497542,0,
00:00:09.196,0.00288713560439646,0,
00:00:09.2,0.00144071027170867,0,
00:00:09.204,0.00332600646652281,0,
00:00:09.208,0.00922009814530611,0,
00:00:09.212,-0.0176289994269609,0,
00:00:09.216,-0.000861193053424358,0,
00:00:09.22,0.0104958396404982,0,
00:00:09.224,-0.00645244540646672,0,
00:00:09.228,-0.00183975836262107,0,
00:00:09.232,0.00813811831176281,0,
00:00:09.236,-0.00090268871281296,0,
00:00:09.24,-0.00497289234772325,0,
00:00:09.244,-0.00191403843928128,0,
00:00:09.248,0.00761192291975021,0,
00:00:09.252,-0.00333666964434087,0,
00:00:09.256,-0.000939335383009166,0,
00:00:09.26,5.03161973028909E-05,0,
00:00:09.264,0.000295814534183592,0,
00:00:09.268,0.000217674765735865,0,
00:00:09.272,0.00213989871554077,0,
00:00:09.276,-0.00409584073349833,0,
00:00:09.28,-0.00182087102439255,0,
00:00:09.284,0.013762597925961,0,
00:00:09.288,-0.0113814622163773,0,
00:00:09.292,-0.010107047855854,0,
00:00:09.296,0.00711561134085059,0,
00:00:09.3,0.00794255826622248,0,
00:00:09.304,0.0112850861623883,0,
00:00:09.308,-0.0157504342496395,0,
00:00:09.312,-0.00625463528558612,0,
00:00:09.316,0.00529896281659603,0,
00:00:09.32,0.00441270926967263,0,
00:00:09.324,-0.0035404316149652,0,
00:00:09.328,-0.00210661231540143,0,
00:00:09.332,0.00703623192384839,0,
00:00:09.336,-0.00374035281129181,0,
00:00:09.34,-0.00104524381458759,0,
00:00:09.344,-0.00399977341294289,0,
00:00:09.348,0.0106366612017155,0,
00:00:09.352,-0.0043829781934619,0,
00:00:09.356,-0.00457532703876495,0,
00:00:09.36,0.00339811271987855,0,
00:00:09.364,0.00225426885299385,0,
00:00:09.368,0.00158361182548106,0,
00:00:09.372,-0.0121771758422256,0,
00:00:09.376,0.000441163341747597,0,
00:00:09.38,0.00974320434033871,0,
00:00:09.384,0.00940896198153496,0,
00:00:09.388,-0.0112534007057548,0,
00:00:09.392,-0.00583018315955997,0,
00:00:09.396,0.00240811286494136,0,
00:00:09.4,0.00562662398442626,0,
00:00:09.404,-0.000141152049764059,0,
00:00:09.408,0.000302875385386869,0,
00:00:09.412,-0.0116404658183455,0,
00:00:09.416,0.0162621345371008,0,
00:00:09.42,-0.00311574945226312,0,
00:00:09.424,-0.010193245485425,0,
00:00:09.428,-0.000884278910234571,0,
00:00:09.432,0.008231564424932,0,
00:00:09.436,0.00469749001786113,0,
00:00:09.44,-0.000736545480322093,0,
00:00:09.444,-0.0119064776226878,0,
00:00:09.448,0.00239253463223577,0,
00:00:09.452,0.00695314630866051,0,
00:00:09.456,0.00892025791108608,0,
00:00:09.46,-0.0180792659521103,0,
00:00:09.464,-0.00474593322724104,0,
00:00:09.468,0.0130343204364181,0,
00:00:09.472,0.00351362233050168,0,
00:00:09.476,-0.00153561716433614,0,
00:00:09.48,-0.00294492789544165,0,
00:00:09.484,-0.00424704793840647,0,
00:00:09.488,0.00128743005916476,0,
00:00:09.492,0.0042057391256094,0,
00:00:09.496,-0.000842985115014017,0,
00:00:09.5,-0.00583046628162265,0,
00:00:09.504,0.00933694932609797,0,
00:00:09.508,-0.00456164963543415,0,
00:00:09.512,-0.00815812684595585,0,
00:00:09.516,0.0142943384125829,0,
00:00:09.52,-0.00200833939015865,0,
00:00:09.524,-0.0092384060844779,0,
00:00:09.528,0.00326109654270113,0,
00:00:09.532,0.00155946554150432,0,
00:00:09.536,0.00267880060710013,0,
00:00:09.54,-0.00191994721535593,0,
00:00:09.544,-0.00807582214474678,0,
00:00:09.548,0.00964210648089647,0,
00:00:09.552,0.00370886782184243,0,
00:00:09.556,-0.00584859494119883,0,
00:00:09.56,-0.0102033726871014,0,
00:00:09.564,0.0122614083811641,0,
00:00:09.568,0.0180862750858068,0,
00:00:09.572,-0.0259609147906303,0,
00:00:09.576,-0.0174300074577332,0,
00:00:09.58,0.0246477387845516,0,
00:00:09.584,0.0163047909736633,0,
00:00:09.588,-0.0139134647324681,0,
00:00:09.592,-0.0120402704924345,0,
00:00:09.596,0.00217115972191095,0,
00:00:09.6,0.0156652946025133,0,
00:00:09.604,-0.0106354551389813,0,
00:00:09.608,-0.0120651973411441,0,
00:00:09.612,0.0109967552125454,0,
00:00:09.616,0.011529203504324,0,
00:00:09.62,-0.00052555266302079,0,
00:00:09.624,-0.0121178068220615,0,
00:00:09.628,-0.00590235134586692,0,
00:00:09.632,0.0103744510561228,0,
00:00:09.636,0.0102549083530903,0,
00:00:09.64,-0.0135786477476358,0,
00:00:09.644,-0.00667046755552292,0,
00:00:09.648,0.00139670353382826,0,
00:00:09.652,0.00939906109124422,0,
00:00:09.656,0.00287046749144793,0,
00:00:09.66,-0.00323265767656267,0,
00:00:09.664,0.00148907711263746,0,
00:00:09.668,-0.000366524996934459,0,
00:00:09.672,-0.00640069553628564,0,
00:00:09.676,-0.000466400204459205,0,
00:00:09.68,-0.00210420857183635,0,
00:00:09.684,0.00611932249739766,0,
00:00:09.688,0.01066087000072,0,
00:00:09.692,0.00275485077872872,0,
00:00:09.696,-0.0317605100572109,0,
00:00:09.7,0.00798029918223619,0,
00:00:09.704,0.0174726955592632,0,
00:00:09.708,-0.0041204746812582,0,
00:00:09.712,-0.00113404961302876,0,
00:00:09.716,0.00128029589541256,0,
00:00:09.72,0.00126216665375978,0,
00:00:09.724,-0.0125720342621207,0,
00:00:09.728,5.90941708651371E-05,0,
00:00:09.732,0.00956456176936626,0,
00:00:09.736,0.00532853603363037,0,
00:00:09.74,-0.000847635034006089,0,
00:00:09.744,-0.0103017380461097,0,
00:00:09.748,-2.48364540311741E-05,0,
00:00:09.752,0.00510315177962184,0,
00:00:09.756,0.000474358384963125,0,
00:00:09.76,-0.00293857185170054,0,
00:00:09.764,0.00333049870096147,0,
00:00:09.768,0.00155466701835394,0,
00:00:09.772,-0.00531121296808124,0,
00:00:09.776,-0.00244683749042451,0,
00:00:09.78,0.00139633810613304,0,
00:00:09.784,0.00923371780663729,0,
00:00:09.788,0.000596966187004,0,
00:00:09.792,-0.0102173956111073,0,
00:00:09.796,-0.00253310590051115,0,
00:00:09.8,0.0108048599213362,0,
00:00:09.804,4.29312349297106E-05,0,
00:00:09.808,-0.0100699672475457,0,
00:00:09.812,0.00053605594439432,0,
00:00:09.816,0.00164933560881764,0,
00:00:09.82,0.00903685204684734,0,
00:00:09.824,-0.00353902741335332,0,
00:00:09.828,-0.00191555428318679,0,
00:00:09.832,-0.000930971931666136,0,
00:00:09.836,0.0080408863723278,0,
00:00:09.84,-0.0119081418961287,0,
00:00:09.844,-0.00646587833762169,0,
00:00:09.848,0.00679855654016137,0,
00:00:09.852,0.0113070961087942,0,
00:00:09.856,-0.00115429563447833,0,
00:00:09.86,-0.00663990713655949,0,
00:00:09.864,-0.0035233017988503,0,
00:00:09.868,0.00677163898944855,0,
00:00:09.872,-0.00128941156435758,0,
00:00:09.876,-0.00869243871420622,0,
00:00:09.88,0.00901364535093308,0,
00:00:09.884,0.0035116143990308,0,
00:00:09.888,-0.00150909158401191,0,
00:00:09.892,-0.00758893368765712,0,
00:00:09.896,-0.000826106523163617,0,
00:00:09.9,0.00441447226330638,0,
00:00:09.904,0.000673367001581937,0,
00:00:09.908,-0.000170913437614217,0,
00:00:09.912,-0.00217901379801333,0,
00:00:09.916,0.00202421355061233,0,
00:00:09.92,0.00586148677393794,0,
00:00:09.924,-0.00585864903405309,0,
00:00:09.928,-0.00431943079456687,0,
00:00:09.932,0.0041864076629281,0,
00:00:09.936,0.00287187704816461,0,
00:00:09.94,-0.0023601723369211,0,
00:00:09.944,-0.00627954909577966,0,
00:00:09.948,0.00355863734148443,0,
00:00:09.952,0.0104028750211,0,
00:00:09.956,-0.00645387079566717,0,
00:00:09.96,-0.00801082979887724,0,
00:00:09.964,0.00314832665026188,0,
00:00:09.968,0.00855628401041031,0,
00:00:09.972,-0.00199315743520856,0,
00:00:09.976,-0.00594446761533618,0,
00:00:09.98,-0.000149663159390911,0,
00:00:09.984,0.00172830256633461,0,
00:00:09.988,0.00565450498834252,0,
00:00:09.992,-0.00546529423445463,0,
00:00:09.996,-0.00363122718408704,0,
00:00:10,0.00474866013973951,0,
00:00:10.004,0.00309110060334206,0,
00:00:10.008,-0.004535763990134,0,
00:00:10.012,-0.00248735654167831,0,
00:00:10.016,0.00297633046284318,0,
00:00:10.02,0.00672187702730298,0,
00:00:10.024,-0.00551631860435009,0,
00:00:10.028,-0.00441727973520756,0,
00:00:10.032,0.00390330329537392,0,
00:00:10.036,0.00262674037367105,0,
00:00:10.04,-0.00246253074146807,0,
00:00:10.044,-0.00417057750746608,0,
00:00:10.048,-0.000390478904591873,0,
00:00:10.052,0.0108361216261983,0,
00:00:10.056,-0.00493248272687197,0,
00:00:10.06,-0.00698425015434623,0,
00:00:10.064,0.00745966797694564,0,
00:00:10.068,0.00209975917823613,0,
00:00:10.072,-0.00595009885728359,0,
00:00:10.076,-0.0030716850887984,0,
00:00:10.08,0.00325164385139942,0,
00:00:10.084,0.00531016383320093,0,
00:00:10.088,0.001192805939354,0,
00:00:10.092,-0.00646392861381173,0,
00:00:10.096,-0.00340774655342102,0,
00:00:10.1,0.00515881413593888,0,
00:00:10.104,0.00332580204121768,0,
00:00:10.108,-0.00450405664741993,0,
00:00:10.112,-0.00256318529136479,0,
00:00:10.116,0.00496801640838385,0,
00:00:10.12,0.00263207987882197,0,
00:00:10.124,-0.00517092412337661,0,
00:00:10.128,-0.00291200564242899,0,
00:00:10.132,0.00496404943987727,0,
00:00:10.136,0.00283597293309867,0,
00:00:10.14,-0.00285530206747353,0,
00:00:10.144,-0.00680451514199376,0,
00:00:10.148,0.00326472893357277,0,
00:00:10.152,0.00623346818611026,0,
00:00:10.156,-0.0002682427293621,0,
00:00:10.16,-0.00442814221605659,0,
00:00:10.164,2.24343275476713E-05,0,
00:00:10.168,0.00509515265002847,0,
00:00:10.172,-0.00548854749649763,0,
00:00:10.176,-0.00341999880038202,0,
00:00:10.18,0.000859577266965061,0,
00:00:10.184,0.00932160671800375,0,
00:00:10.188,-0.00104827247560024,0,
00:00:10.192,-0.00573808327317238,0,
00:00:10.196,-0.00264275958761573,0,
00:00:10.2,0.0051829987205565,0,
00:00:10.204,0.00282943691127002,0,
00:00:10.208,-0.00506237475201488,0,
00:00:10.212,-0.00287445425055921,0,
00:00:10.216,0.00496715633198619,0,
00:00:10.22,0.00283212028443813,0,
00:00:10.224,-0.00492960819974542,0,
00:00:10.228,-0.00274581112898886,0,
00:00:10.232,0.00294088153168559,0,
00:00:10.236,0.00477544497698545,0,
00:00:10.24,-0.00128533435054123,0,
00:00:10.244,-0.00461402535438538,0,
00:00:10.248,0.000416765833506361,0,
00:00:10.252,0.00356565648689866,0,
00:00:10.256,-0.00105622492264956,0,
00:00:10.26,-0.00364550901576877,0,
00:00:10.264,-0.000711290165781975,0,
00:00:10.268,0.00811284314841032,0,
00:00:10.272,-0.00139119662344456,0,
00:00:10.276,-0.00748943770304322,0,
00:00:10.28,0.00196555536240339,0,
00:00:10.284,0.0073602213524282,0,
00:00:10.288,-0.00252345367334783,0,
00:00:10.292,-0.00582193722948432,0,
00:00:10.296,-0.00177786010317504,0,
00:00:10.3,0.00621313089504838,0,
00:00:10.304,0.00347523763775826,0,
00:00:10.308,-0.00494902906939387,0,
00:00:10.312,-0.00313957734033465,0,
00:00:10.316,0.00458497228100896,0,
00:00:10.32,0.00254120328463614,0,
00:00:10.324,-0.00504398811608553,0,
00:00:10.328,-0.00270842481404543,0,
00:00:10.332,0.00512660853564739,0,
00:00:10.336,0.00498107261955738,0,
00:00:10.34,-0.0069212350063026,0,
00:00:10.344,-0.00445312075316906,0,
00:00:10.348,0.00269643659703434,0,
00:00:10.352,0.00765369972214103,0,
00:00:10.356,-0.00431604497134686,0,
00:00:10.36,-0.00363501091487706,0,
00:00:10.364,0.00198522512800992,0,
00:00:10.368,0.00430076522752643,0,
00:00:10.372,-0.00127409107517451,0,
00:00:10.376,-0.0043473900295794,0,
00:00:10.38,-0.00137911422643811,0,
00:00:10.384,0.0077703227289021,0,
00:00:10.388,-0.00138331495691091,0,
00:00:10.392,-0.00519677298143506,0,
00:00:10.396,-0.0018358591478318,0,
00:00:10.4,0.00785677507519722,0,
00:00:10.404,-0.00101520924363285,0,
00:00:10.408,-0.00484750093892217,0,
00:00:10.412,-0.00167059653904289,0,
00:00:10.416,0.00575287081301212,0,
00:00:10.42,0.00289871776476502,0,
00:00:10.424,-0.00532665615901351,0,
00:00:10.428,-0.00322553119622171,0,
00:00:10.432,0.00263814814388752,0,
00:00:10.436,0.0067952130921185,0,
00:00:10.44,-0.00521667022258043,0,
00:00:10.444,-0.0061817355453968,0,
00:00:10.448,0.00606636703014374,0,
00:00:10.452,0.0043047578074038,0,
00:00:10.456,-0.00235344585962594,0,
00:00:10.46,-0.00511286547407508,0,
00:00:10.464,0.000582326727453619,0,
00:00:10.468,0.00612557400017977,0,
00:00:10.472,-0.00259443279355764,0,
00:00:10.476,-0.00716439727693796,0,
00:00:10.48,0.00312220701016486,0,
00:00:10.484,0.00637529045343399,0,
00:00:10.488,0.00204460229724646,0,
00:00:10.492,-0.00624319352209568,0,
00:00:10.496,-0.00574975786730647,0,
00:00:10.5,0.00878424569964409,0,
00:00:10.504,0.00059568794677034,0,
00:00:10.508,-0.00202898704446852,0,
00:00:10.512,-0.00385035877116024,0,
00:00:10.516,0.00346239795908332,0,
00:00:10.52,0.00213899370282888,0,
00:00:10.524,-0.00474098790436983,0,
00:00:10.528,-0.00213172752410173,0,
00:00:10.532,0.00350718735717237,0,
00:00:10.536,0.00711908796802163,0,
00:00:10.54,-0.00537511613219976,0,
00:00:10.544,-0.0044910847209394,0,
00:00:10.548,0.00165716744959354,0,
00:00:10.552,0.00652299681678414,0,
00:00:10.556,-0.00287557858973742,0,
00:00:10.56,-0.00771314045414329,0,
00:00:10.564,0.00268539809621871,0,
00:00:10.568,0.00829466804862022,0,
00:00:10.572,-0.00191470293793827,0,
00:00:10.576,-0.00570333516225219,0,
00:00:10.58,-0.00201974506489933,0,
00:00:10.584,0.00792825780808926,0,
00:00:10.588,-0.000856487022247165,0,
00:00:10.592,-0.00473120622336864,0,
00:00:10.596,-0.00164456607308239,0,
00:00:10.6,0.00570677919313312,0,
00:00:10.604,0.00282645435072482,0,
00:00:10.608,-0.00538473576307297,0,
00:00:10.612,-0.00325089925900102,0,
00:00:10.616,0.00471846247091889,0,
00:00:10.62,0.00276419264264405,0,
00:00:10.624,-0.00486280675977468,0,
00:00:10.628,-0.00262888520956039,0,
00:00:10.632,0.00511273788288236,0,
00:00:10.636,0.00284278416074812,0,
00:00:10.64,-0.00501002976670861,0,
00:00:10.644,-0.00284861540421844,0,
00:00:10.648,0.00286759110167623,0,
00:00:10.652,0.00682611111551523,0,
00:00:10.656,-0.00532274274155498,0,
00:00:10.66,-0.00425024889409542,0,
00:00:10.664,0.00398480007424951,0,
00:00:10.668,0.00262377806939185,0,
00:00:10.672,-0.00251349643804133,0,
00:00:10.676,-0.00422774814069271,0,
00:00:10.68,-0.000426768325269222,0,
00:00:10.684,0.00875181518495083,0,
00:00:10.688,-0.000870030024088919,0,
00:00:10.692,-0.00522366166114807,0,
00:00:10.696,-0.00219374569132924,0,
00:00:10.7,0.00744557613506913,0,
00:00:10.704,-0.00128698465414345,0,
00:00:10.708,-0.00284756859764457,0,
00:00:10.712,-0.00357534433715045,0,
00:00:10.716,0.00423658639192581,0,
00:00:10.72,0.00282574072480202,0,
00:00:10.724,-0.00443717418238521,0,
00:00:10.728,-0.00220469641499221,0,
00:00:10.732,0.00530933169648051,0,
00:00:10.736,0.00278914882801473,0,
00:00:10.74,-0.00520612578839064,0,
00:00:10.744,-0.00305354688316584,0,
00:00:10.748,0.00274112308397889,0,
00:00:10.752,0.00679812394082546,0,
00:00:10.756,-0.00320588913746178,0,
00:00:10.76,-0.00823763757944107,0,
00:00:10.764,0.00229191570542753,0,
00:00:10.768,0.0081599960103631,0,
00:00:10.772,-0.00390852754935622,0,
00:00:10.776,-0.00355090759694576,0,
00:00:10.78,0.00185635522939265,0,
00:00:10.784,0.00413407757878304,0,
00:00:10.788,-0.00136603927239776,0,
00:00:10.792,-0.00434064073488116,0,
00:00:10.796,-0.00130939378868788,0,
00:00:10.8,0.00577493291348219,0,
00:00:10.804,0.00272143655456603,0,
00:00:10.808,-0.00551455561071634,0,
00:00:10.812,-0.00331421103328466,0,
00:00:10.816,0.00681251054629683,0,
00:00:10.82,0.000855149875860661,0,
00:00:10.824,-0.00643517170101404,0,
00:00:10.828,-0.00483841774985194,0,
00:00:10.832,0.00794058386236429,0,
00:00:10.836,0.00757435942068696,0,
00:00:10.84,-0.00619951821863651,0,
00:00:10.844,-0.00734457327052951,0,
00:00:10.848,0.00540601834654808,0,
00:00:10.852,0.0042221830226481,0,
00:00:10.856,-0.00208680052310228,0,
00:00:10.86,-0.00477814441546798,0,
00:00:10.864,0.000799209054093808,0,
00:00:10.868,0.00409707799553871,0,
00:00:10.872,-0.000694918155204505,0,
00:00:10.876,-0.00356332398951054,0,
00:00:10.88,-0.000842947512865067,0,
00:00:10.884,0.00790451187640429,0,
00:00:10.888,-0.00155872758477926,0,
00:00:10.892,-0.00548696331679821,0,
00:00:10.896,-0.00207281904295087,0,
00:00:10.9,0.00775093585252762,0,
00:00:10.904,0.00107624230440706,0,
00:00:10.908,-0.00674298405647278,0,
00:00:10.912,-0.00322956987656653,0,
00:00:10.916,0.00562514364719391,0,
00:00:10.92,0.00374987116083503,0,
00:00:10.924,-0.0043181162327528,0,
00:00:10.928,-0.00262193731032312,0,
00:00:10.932,0.0047756084240973,0,
00:00:10.936,0.0045115863904357,0,
00:00:10.94,-0.0072643724270165,0,
00:00:10.944,-0.0066531146876514,0,
00:00:10.948,0.00680396147072315,0,
00:00:10.952,0.0053823278285563,0,
00:00:10.956,-0.00160383118782192,0,
00:00:10.96,-0.00492281606420875,0,
00:00:10.964,0.000336999888531864,0,
00:00:10.968,0.00364187103696167,0,
00:00:10.972,-0.000952865811996162,0,
00:00:10.976,-0.00359591003507376,0,
00:00:10.98,-0.000729920109733939,0,
00:00:10.984,0.00805416703224182,0,
00:00:10.988,-0.00145187799353153,0,
00:00:10.992,-0.00752677675336599,0,
00:00:10.996,0.0019573753233999,0,
00:00:11,0.00529670249670744,0,
00:00:11.004,0.00154660595580935,0,
00:00:11.008,-0.00821623113006353,0,
00:00:11.012,0.000814238854218274,0,
00:00:11.016,0.00485839415341616,0,
00:00:11.02,0.0018198904581368,0,
00:00:11.024,-0.00350125459954143,0,
00:00:11.028,-0.00475383875891566,0,
00:00:11.032,0.00164658017456532,0,
00:00:11.036,0.00499767251312733,0,
00:00:11.04,-0.000205546064535156,0,
00:00:11.044,-0.0035597828682512,0,
00:00:11.048,0.000931846618186682,0,
00:00:11.052,0.00349466316401958,0,
00:00:11.056,-0.00146762153599411,0,
00:00:11.06,-0.00409326096996665,0,
00:00:11.064,0.00108164746779948,0,
00:00:11.068,0.00399448536336422,0,
00:00:11.072,0.00110486755147576,0,
00:00:11.076,-0.00786001421511173,0,
00:00:11.08,0.00145391072146595,0,
00:00:11.084,0.00533846113830805,0,
00:00:11.088,0.00196200609207153,0,
00:00:11.092,-0.00571650825440884,0,
00:00:11.096,-0.00303456839174032,0,
00:00:11.1,0.00514476886019111,0,
00:00:11.104,0.00309324031695724,0,
00:00:11.108,-0.00476099783554673,0,
00:00:11.112,-0.00272130314260721,0,
00:00:11.116,0.00493724271655083,0,
00:00:11.12,0.00268984539434314,0,
00:00:11.124,-0.00301002245396376,0,
00:00:11.128,-0.00482261460274458,0,
00:00:11.132,0.00127125985454768,0,
00:00:11.136,0.0046253427863121,0,
00:00:11.14,-0.000395464448956773,0,
00:00:11.144,-0.00562344770878553,0,
00:00:11.148,0.00511565105989575,0,
00:00:11.152,0.00331132533028722,0,
00:00:11.156,-0.00283540715463459,0,
00:00:11.16,-0.00716359587386251,0,
00:00:11.164,0.00284451898187399,0,
00:00:11.168,0.00598703417927027,0,
00:00:11.172,-0.000282679422525689,0,
00:00:11.176,-0.00428534066304564,0,
00:00:11.18,0.00020405143732205,0,
00:00:11.184,0.00522532127797604,0,
00:00:11.188,-0.00336699606850743,0,
00:00:11.192,-0.0074937860481441,0,
00:00:11.196,0.00321580283343792,0,
00:00:11.2,0.00668773613870144,0,
00:00:11.204,0.00235623633489013,0,
00:00:11.208,-0.00606369506567717,0,
00:00:11.212,-0.00364811182953417,0,
00:00:11.216,0.00465822126716375,0,
00:00:11.22,0.00290304864756763,0,
00:00:11.224,-0.00261303200386465,0,
00:00:11.228,-0.0044983709231019,0,
00:00:11.232,0.00348360813222826,0,
00:00:11.236,0.00261512515135109,0,
00:00:11.24,-0.00215909047983587,0,
00:00:11.244,-0.00384532753378153,0,
00:00:11.248,0.00183884729631245,0,
00:00:11.252,0.00673945480957627,0,
00:00:11.256,-0.0047608045861125,0,
00:00:11.26,-0.00568903796374798,0,
00:00:11.264,0.00422184448689222,0,
00:00:11.268,0.00828615389764309,0,
00:00:11.272,-0.00292996154166758,0,
00:00:11.276,-0.00683166226372123,0,
00:00:11.28,-0.000594318727962673,0,
00:00:11.284,0.00382985314354301,0,
00:00:11.288,-0.000171446779859252,0,
00:00:11.292,-0.00281882076524198,0,
00:00:11.296,0.00176816096063703,0,
00:00:11.3,0.00402353145182133,0,
00:00:11.304,0.000726446276530623,0,
00:00:11.308,-0.00624354975298047,0,
00:00:11.312,-0.00290875579230487,0,
00:00:11.316,0.00557957962155342,0,
00:00:11.32,0.00350250629708171,0,
00:00:11.324,-0.00455564633011818,0,
00:00:11.328,-0.00273079588077962,0,
00:00:11.332,0.00480255438014865,0,
00:00:11.336,0.00253821653313935,0,
00:00:11.34,-0.00518279895186424,0,
00:00:11.344,-0.00494662765413523,0,
00:00:11.348,0.00699389679357409,0,
00:00:11.352,0.00659274868667126,0,
00:00:11.356,-0.0046404511667788,0,
00:00:11.36,-0.00929688755422831,0,
00:00:11.364,0.00204360764473677,0,
00:00:11.368,0.00850685872137547,0,
00:00:11.372,-0.00338057964108884,0,
00:00:11.376,-0.00316311302594841,0,
00:00:11.38,0.00198244210332632,0,
00:00:11.384,0.00612131133675575,0,
00:00:11.388,-0.00352105963975191,0,
00:00:11.392,-0.00614010170102119,0,
00:00:11.396,0.000511972815729678,0,
00:00:11.4,0.00256905821152031,0,
00:00:11.404,0.00413045613095164,0,
00:00:11.408,-0.00336484843865037,0,
00:00:11.412,-0.00217833672650158,0,
00:00:11.416,0.00462877470999956,0,
00:00:11.42,0.00201377528719604,0,
00:00:11.424,-0.00566153647378087,0,
00:00:11.428,-0.00309430249035358,0,
00:00:11.432,0.00505512161180377,0,
00:00:11.436,0.00305582047440112,0,
00:00:11.44,-0.00265073496848345,0,
00:00:11.444,-0.00669512944296002,0,
00:00:11.448,0.00534783024340868,0,
00:00:11.452,0.00627856981009245,0,
00:00:11.456,-0.0060296137817204,0,
00:00:11.46,-0.00431837514042854,0,
00:00:11.464,0.00231635663658381,0,
00:00:11.468,0.00507797813042998,0,
00:00:11.472,-0.000600973842665553,0,
00:00:11.476,-0.00405096262693405,0,
00:00:11.48,0.00062864733627066,0,
00:00:11.484,0.00553404586389661,0,
00:00:11.488,-0.00536710070446134,0,
00:00:11.492,-0.00355491694062948,0,
00:00:11.496,0.00269889389164746,0,
00:00:11.5,0.00507185468450189,0,
00:00:11.504,0.00126783223822713,0,
00:00:11.508,-0.00624019233509898,0,
00:00:11.512,-0.00320130446925759,0,
00:00:11.516,0.00525969872251153,0,
00:00:11.52,0.0033174124546349,0,
00:00:11.524,-0.00457498338073492,0,
00:00:11.528,-0.00264126691035926,0,
00:00:11.532,0.00491885654628277,0,
00:00:11.536,0.00262079993262887,0,
00:00:11.54,-0.00515524251386523,0,
00:00:11.544,-0.00496307108551264,0,
00:00:11.548,0.00695876264944673,0,
00:00:11.552,0.00448597176000476,0,
00:00:11.556,-0.00268040760420263,0,
00:00:11.56,-0.00765437725931406,0,
00:00:11.564,0.00430589728057384,0,
00:00:11.568,0.0056994678452611,0,
00:00:11.572,-0.00604347232729197,0,
00:00:11.576,-0.00189333723392338,0,
00:00:11.58,-0.00130971311591566,0,
00:00:11.584,0.00777982734143734,0,
00:00:11.588,-0.0010192635236308,0,
00:00:11.592,-0.00473740603774786,0,
00:00:11.596,-0.00156710110604763,0,
00:00:11.6,0.00576905906200409,0,
00:00:11.604,0.00282793771475554,0,
00:00:11.608,-0.00543497502803802,0,
00:00:11.612,-0.00331801176071167,0,
00:00:11.616,0.00466647930443287,0,
00:00:11.62,0.00274181249551475,0,
00:00:11.624,-0.00485880393534899,0,
00:00:11.628,-0.00261130253784359,0,
00:00:11.632,0.00513071520254016,0,
00:00:11.636,0.00285330507904291,0,
00:00:11.64,-0.00500835943967104,0,
00:00:11.644,-0.00285282009281218,0,
00:00:11.648,0.00493754679337144,0,
00:00:11.652,0.00277074333280325,0,
00:00:11.656,-0.00499098282307386,0,
00:00:11.66,-0.00278450432233512,0,
00:00:11.664,0.00500631704926491,0,
00:00:11.668,0.00281025748699903,0,
00:00:11.672,-0.00290975789539516,0,
00:00:11.676,-0.00477663706988096,0,
00:00:11.68,-0.00080988701665774,0,
00:00:11.684,0.00864336639642715,0,
00:00:11.688,-0.000763845862820745,0,
00:00:11.692,-0.00503390468657017,0,
00:00:11.696,-0.00203502248041332,0,
00:00:11.7,0.00544279627501965,0,
00:00:11.704,0.00275580724701285,0,
00:00:11.708,-0.00530889770016074,0,
00:00:11.712,-0.00312057160772383,0,
00:00:11.716,0.00482523208484054,0,
00:00:11.72,0.00281150452792645,0,
00:00:11.724,-0.00487055256962776,0,
00:00:11.728,-0.00266551063396037,0,
00:00:11.732,0.00507493922486901,0,
00:00:11.736,0.00282052368856967,0,
00:00:11.74,-0.00501364842057228,0,
00:00:11.744,-0.00283978134393692,0,
00:00:11.748,0.00495569175109267,0,
00:00:11.752,0.00278407544828951,0,
00:00:11.756,-0.00498619442805648,0,
00:00:11.76,-0.00278677023015916,0,
00:00:11.764,0.00500089908018708,0,
00:00:11.768,0.00280532287433743,0,
00:00:11.772,-0.00291228969581425,0,
00:00:11.776,-0.00685245683416724,0,
00:00:11.78,0.00324265076778829,0,
00:00:11.784,0.00623598834499717,0,
00:00:11.788,0.00182335509452969,0,
00:00:11.792,-0.00638666702434421,0,
00:00:11.796,-0.00368523388169706,0,
00:00:11.8,0.00689534423872828,0,
00:00:11.804,-0.000931724265683442,0,
00:00:11.808,-0.00212030042894185,0,
00:00:11.812,-0.00297404848970473,0,
00:00:11.816,0.00447923084720969,0,
00:00:11.82,0.00273757660761476,0,
00:00:11.824,-0.00468995748087764,0,
00:00:11.828,-0.00244944076985121,0,
00:00:11.832,0.00309685594402254,0,
00:00:11.836,0.004749053157866,0,
00:00:11.84,-0.00142633216455579,0,
00:00:11.844,-0.00477122189477086,0,
00:00:11.848,0.000313264055876061,0,
00:00:11.852,0.00353631912730634,0,
00:00:11.856,-0.00103012123145163,0,
00:00:11.86,-0.0035982895642519,0,
00:00:11.864,0.0034795911051333,0,
00:00:11.868,0.00210428284481168,0,
00:00:11.872,-0.00270227785222232,0,
00:00:11.876,-0.00621457397937775,0,
00:00:11.88,0.00589007418602705,0,
00:00:11.884,0.00451340945437551,0,
00:00:11.888,-0.00195814319886267,0,
00:00:11.892,-0.00482103507965803,0,
00:00:11.896,0.000638519588392228,0,
00:00:11.9,0.00390923535451293,0,
00:00:11.904,-0.000834239181131125,0,
00:00:11.908,-0.0036228250246495,0,
00:00:11.912,-0.000834045291412622,0,
00:00:11.916,0.00587228033691645,0,
00:00:11.92,0.00253697275184095,0,
00:00:11.924,-0.00579429464414716,0,
00:00:11.928,-0.00353390956297517,0,
00:00:11.932,0.00464476970955729,0,
00:00:11.936,0.00285214884206653,0,
00:00:11.94,-0.00471441866829991,0,
00:00:11.944,-0.00250731757842004,0,
00:00:11.948,0.00516698136925697,0,
00:00:11.952,0.00283451820723712,0,
00:00:11.956,-0.00297550787217915,0,
00:00:11.96,-0.00486679235473275,0,
00:00:11.964,0.00120014371350408,0,
00:00:11.968,0.0045689893886447,0,
00:00:11.972,-0.000419028685428202,0,
00:00:11.976,-0.00354197272099555,0,
00:00:11.98,0.00108488602563739,0,
00:00:11.984,0.00366475805640221,0,
00:00:11.988,-0.00135901919566095,0,
00:00:11.992,-0.00406667962670326,0,
00:00:11.996,0.00104901089798659,0,
00:00:12,0.00394125236198306,0,
00:00:12.004,-0.00101334799546748,0,
00:00:12.008,-0.00382682820782065,0,
00:00:12.012,0.00112473324406892,0,
00:00:12.016,0.00388866499997675,0,
00:00:12.02,-0.00111838115844876,0,
00:00:12.024,-0.0039174584671855,0,
00:00:12.028,-0.000994362402707338,0,
00:00:12.032,0.00586692383512855,0,
00:00:12.036,0.00262815342284739,0,
00:00:12.04,-0.00360851595178247,0,
00:00:12.044,-0.00751070724800229,0,
00:00:12.048,0.00499970931559801,0,
00:00:12.052,0.00637451000511646,0,
00:00:12.056,-0.00570394610986114,0,
00:00:12.06,-0.00399296823889017,0,
00:00:12.064,0.00457979692146182,0,
00:00:12.068,0.0031299099791795,0,
00:00:12.072,-0.00232109171338379,0,
00:00:12.076,-0.00640992308035493,0,
00:00:12.08,0.00544547522440553,0,
00:00:12.084,0.00412568589672446,0,
00:00:12.088,-0.00421232217922807,0,
00:00:12.092,-0.00281918817199767,0,
00:00:12.096,0.00241864193230867,0,
00:00:12.1,0.00630751205608249,0,
00:00:12.104,-0.00148862798232585,0,
00:00:12.108,-0.00825114920735359,0,
00:00:12.112,-0.0033157782163471,0,
00:00:12.116,0.00640948629006743,0,
00:00:12.12,0.00259720673784614,0,
00:00:12.124,-0.00176533556077629,0,
00:00:12.128,-0.00087216030806303,0,
00:00:12.132,0.00680455425754189,0,
00:00:12.136,-0.000708983454387635,0,
00:00:12.14,-0.00820742268115282,0,
00:00:12.144,-0.00383990537375212,0,
00:00:12.148,0.00372412521392107,0,
00:00:12.152,0.00629652617499232,0,
00:00:12.156,-3.65642627002671E-05,0,
00:00:12.16,-0.0041006444953382,0,
00:00:12.164,0.000255422928603366,0,
00:00:12.168,0.00306641520000994,0,
00:00:12.172,-0.00154445832595229,0,
00:00:12.176,-0.00391995208337903,0,
00:00:12.18,0.00133216322865337,0,
00:00:12.184,0.00626049470156431,0,
00:00:12.188,-0.00287224538624287,0,
00:00:12.192,-0.00755234342068434,0,
00:00:12.196,0.00284603959880769,0,
00:00:12.2,0.00836474634706974,0,
00:00:12.204,-0.00194164761342108,0,
00:00:12.208,-0.00578307872638106,0,
00:00:12.212,-0.00209978665225208,0,
00:00:12.216,0.00788086093962193,0,
00:00:12.22,0.0012107789516449,0,
00:00:12.224,-0.0066888015717268,0,
00:00:12.228,-0.00326116080395877,0,
00:00:12.232,0.0055487984791398,0,
00:00:12.236,0.00367634883150458,0,
00:00:12.24,-0.00435996055603027,0,
00:00:12.244,-0.00262781418859959,0,
00:00:12.248,0.00479316432029009,0,
00:00:12.252,0.00453531369566917,0,
00:00:12.256,-0.00724719278514385,0,
00:00:12.26,-0.00664711417630315,0,
00:00:12.264,0.00680086528882384,0,
00:00:12.268,0.00537525163963437,0,
00:00:12.272,-0.00161019095685333,0,
00:00:12.276,-0.00700180325657129,0,
00:00:12.28,0.00231233728118241,0,
00:00:12.284,0.00736158713698387,0,
00:00:12.288,-0.00274897157214582,0,
00:00:12.292,-0.00815505906939507,0,
00:00:12.296,0.00211686524562538,0,
00:00:12.3,0.00793264340609312,0,
00:00:12.304,-0.00197160337120295,0,
00:00:12.308,-0.0076155480928719,0,
00:00:12.312,0.000187027369975112,0,
00:00:12.316,0.00974629726260901,0,
00:00:12.32,-0.000609745678957552,0,
00:00:12.324,-0.00559575296938419,0,
00:00:12.328,-0.00273802620358765,0,
00:00:12.332,0.00501290988177061,0,
00:00:12.336,0.00271010841242969,0,
00:00:12.34,-0.00508682243525982,0,
00:00:12.344,-0.00282529462128878,0,
00:00:12.348,0.00504191219806671,0,
00:00:12.352,0.00289129256270826,0,
00:00:12.356,-0.00282862014137208,0,
00:00:12.36,-0.00680224224925041,0,
00:00:12.364,0.00532905338332057,0,
00:00:12.368,0.00424408726394176,0,
00:00:12.372,-0.00399550050497055,0,
00:00:12.376,-0.00263255345635116,0,
00:00:12.38,0.00250957650132477,0,
00:00:12.384,0.00630410015583038,0,
00:00:12.388,-0.00362140010111034,0,
00:00:12.392,-0.00633971067145467,0,
00:00:12.396,-0.00171427067834884,0,
00:00:12.4,0.00865278858691454,0,
00:00:12.404,-0.00020816684991587,0,
00:00:12.408,-0.00441480707377195,0,
00:00:12.412,-0.0016638453816995,0,
00:00:12.416,0.00757219269871712,0,
00:00:12.42,-0.00145786127541214,0,
00:00:12.424,-0.00519846752285957,0,
00:00:12.428,-0.00181956333108246,0,
00:00:12.432,0.00578525802120566,0,
00:00:12.436,0.00302310311235487,0,
00:00:12.44,-0.00520185846835375,0,
00:00:12.444,-0.00315402983687818,0,
00:00:12.448,0.00679937982931733,0,
00:00:12.452,0.000738176284357905,0,
00:00:12.456,-0.00656643928959966,0,
00:00:12.46,-0.00284745241515338,0,
00:00:12.464,0.00386771862395108,0,
00:00:12.468,0.00585618475452065,0,
00:00:12.472,-0.000642577186226845,0,
00:00:12.476,-0.00454931706190109,0,
00:00:12.48,8.90608134795912E-05,0,
00:00:12.484,0.00313581433147192,0,
00:00:12.488,-0.00136715732514858,0,
00:00:12.492,-0.0037556744646281,0,
00:00:12.496,0.00141832488588989,0,
00:00:12.5,0.00418823305517435,0,
00:00:12.504,0.00113256298936903,0,
00:00:12.508,-0.00794114731252193,0,
00:00:12.512,0.00134396960493177,0,
00:00:12.516,0.00525884656235576,0,
00:00:12.52,0.00193428248167038,0,
00:00:12.524,-0.00777778262272477,0,
00:00:12.528,0.00104949180968106,0,
00:00:12.532,0.00484107527881861,0,
00:00:12.536,-0.000432641478255391,0,
00:00:12.54,-0.00380553561262786,0,
00:00:12.544,0.000802806054707617,0,
00:00:12.548,0.00145011290442199,0,
00:00:12.552,0.0027227345854044,0,
00:00:12.556,-0.00219163810834289,0,
00:00:12.56,-0.00432356214150786,0,
00:00:12.564,0.0012711490271613,0,
00:00:12.568,0.00434197392314672,0,
00:00:12.572,-0.000692998059093952,0,
00:00:12.576,-0.0037010321393609,0,
00:00:12.58,0.00107668654527515,0,
00:00:12.584,0.00583222461864352,0,
00:00:12.588,-0.00321980775333941,0,
00:00:12.592,-0.00770422955974936,0,
00:00:12.596,0.0028735981322825,0,
00:00:12.6,0.00640960643067956,0,
00:00:12.604,0.00223274272866547,0,
00:00:12.608,-0.0081202257424593,0,
00:00:12.612,-0.00157846952788532,0,
00:00:12.616,0.00847379397600889,0,
00:00:12.62,0.00116260081995279,0,
00:00:12.624,-0.00716388830915093,0,
00:00:12.628,-0.00582608487457037,0,
00:00:12.632,0.00728139374405146,0,
00:00:12.636,0.0074324868619442,0,
00:00:12.64,-0.00595287512987852,0,
00:00:12.644,-0.00488799111917615,0,
00:00:12.648,0.00373226008377969,0,
00:00:12.652,0.002708172891289,0,
00:00:12.656,-0.00436729751527309,0,
00:00:12.66,-0.00206678058020771,0,
00:00:12.664,0.00336177949793637,0,
00:00:12.668,0.00691905710846186,0,
00:00:12.672,-0.00343965832144022,0,
00:00:12.676,-0.00858353450894356,0,
00:00:12.68,0.002026830567047,0,
00:00:12.684,0.00805522873997688,0,
00:00:12.688,-0.00179898203350604,0,
00:00:12.692,-0.00750175211578608,0,
00:00:12.696,0.00228574685752392,0,
00:00:12.7,0.00565151916816831,0,
00:00:12.704,0.00173390761483461,0,
00:00:12.708,-0.00615664385259151,0,
00:00:12.712,-0.00338061922229826,0,
00:00:12.716,0.00502685829997063,0,
00:00:12.72,0.00317472126334906,0,
00:00:12.724,-0.00666551385074854,0,
00:00:12.728,0.0014838557690382,0,
00:00:12.732,0.0046833804808557,0,
00:00:12.736,-0.000848725903779268,0,
00:00:12.74,-0.00209822156466544,0,
00:00:12.744,-0.00549308629706502,0,
00:00:12.748,0.00793791562318802,0,
00:00:12.752,0.00201352452859282,0,
00:00:12.756,-0.00621404312551022,0,
00:00:12.76,-0.00327567872591317,0,
00:00:12.764,0.00526524381712079,0,
00:00:12.768,0.00131223944481462,0,
00:00:12.772,-0.000451099127531052,0,
00:00:12.776,-0.00294137187302113,0,
00:00:12.78,0.00136649422347546,0,
00:00:12.784,0.00353918224573135,0,
00:00:12.788,-0.0016607524594292,0,
00:00:12.792,-0.00431221071630716,0,
00:00:12.796,0.000966455787420273,0,
00:00:12.8,0.00400481093674898,0,
00:00:12.804,-0.00088348746066913,0,
00:00:12.808,-0.00371014629490674,0,
00:00:12.812,-0.000890609866473824,0,
00:00:12.816,0.00794190168380737,0,
00:00:12.82,-0.00148440396878868,0,
00:00:12.824,-0.00542154163122177,0,
00:00:12.828,3.56129494321067E-05,0,
00:00:12.832,0.00369945564307272,0,
00:00:12.836,-0.000685768784023821,0,
00:00:12.84,-0.00332499295473099,0,
00:00:12.844,-0.000582167238462716,0,
00:00:12.848,0.00805925671011209,0,
00:00:12.852,0.000539003813173622,0,
00:00:12.856,-0.00752966571599245,0,
00:00:12.86,-0.00588235398754478,0,
00:00:12.864,0.00740647641941905,0,
00:00:12.868,0.00551247643306851,0,
00:00:12.872,-0.00180893042124808,0,
00:00:12.876,-0.00728848902508616,0,
00:00:12.88,0.00211875000968575,0,
00:00:12.884,0.00731948623433709,0,
00:00:12.888,-0.00267680897377431,0,
00:00:12.892,-0.00804341956973076,0,
00:00:12.896,0.00220518815331161,0,
00:00:12.9,0.00589417526498437,0,
00:00:12.904,-4.67472182208439E-06,0,
00:00:12.908,-0.00392923317849636,0,
00:00:12.912,-0.00164277362637222,0,
00:00:12.916,0.00931928958743811,0,
00:00:12.92,-0.00379213015548885,0,
00:00:12.924,-0.00701786344870925,0,
00:00:12.928,-0.00195873854681849,0,
00:00:12.932,0.00887040607631207,0,
00:00:12.936,0.000179725189809687,0,
00:00:12.94,-0.00412303768098354,0,
00:00:12.944,-0.00157813611440361,0,
00:00:12.948,0.00540944887325168,0,
00:00:12.952,0.00243446067906916,0,
00:00:12.956,-0.00566818099468946,0,
00:00:12.96,-0.00335092982277274,0,
00:00:12.964,0.004768047016114,0,
00:00:12.968,0.00495561538264155,0,
00:00:12.972,-0.00673351483419538,0,
00:00:12.976,-0.00629343697801232,0,
00:00:12.98,0.00483563914895058,0,
00:00:12.984,0.00934799201786518,0,
00:00:12.988,-0.00417429488152266,0,
00:00:12.992,-0.00454904139041901,0,
00:00:12.996,0.00089584628585726,0,
00:00:13,0.00571632105857134,0,
00:00:13.004,-0.00332925142720342,0,
00:00:13.008,-0.0056689940392971,0,
00:00:13.012,-0.00112585863098502,0,
00:00:13.016,0.00892876088619232,0,
00:00:13.02,-0.000240270135691389,0,
00:00:13.024,-0.00461677275598049,0,
00:00:13.028,-0.00187997403554618,0,
00:00:13.032,0.00536421407014132,0,
00:00:13.036,0.00256671058014035,0,
00:00:13.04,-0.00548512348905206,0,
00:00:13.044,-0.00321517884731293,0,
00:00:13.048,0.00274262018501759,0,
00:00:13.052,0.00690987380221486,0,
00:00:13.056,-0.00514524802565575,0,
00:00:13.06,-0.00409045442938805,0,
00:00:13.064,0.00199142983183265,0,
00:00:13.068,0.00667723035439849,0,
00:00:13.072,-0.00289208651520312,0,
00:00:13.076,-0.00782223604619503,0,
00:00:13.08,0.00256899441592395,0,
00:00:13.084,0.00822393130511045,0,
00:00:13.088,-0.00192839512601495,0,
00:00:13.092,-0.00775359431281686,0,
00:00:13.096,0.00206883368082345,0,
00:00:13.1,0.00554756168276072,0,
00:00:13.104,0.0017404587706551,0,
00:00:13.108,-0.00816409569233656,0,
00:00:13.112,0.000745603290852159,0,
00:00:13.116,0.00681620370596647,0,
00:00:13.12,-0.00233118422329426,0,
00:00:13.124,-0.00529182981699705,0,
00:00:13.128,-0.00131112639792264,0,
00:00:13.132,0.0064149172976613,0,
00:00:13.136,0.00341841159388423,0,
00:00:13.14,-0.00514169223606586,0,
00:00:13.144,-0.00333314063027501,0,
00:00:13.148,0.00447228876873851,0,
00:00:13.152,0.00252361968159676,0,
00:00:13.156,-0.00499854842200875,0,
00:00:13.16,-0.00264564086683095,0,
00:00:13.164,0.00517260516062379,0,
00:00:13.168,0.00292174564674497,0,
00:00:13.172,-0.00495378393679857,0,
00:00:13.176,-0.00282978336326778,0,
00:00:13.18,0.0028564736712724,0,
00:00:13.184,0.0068022646009922,0,
00:00:13.188,-0.00326800532639027,0,
00:00:13.192,-0.00831171311438084,0,
00:00:13.196,0.00224263523705304,0,
00:00:13.2,0.00814633350819349,0,
00:00:13.204,-0.0018197491299361,0,
00:00:13.208,-0.00757902627810836,0,
00:00:13.212,0.00220857397653162,0,
00:00:13.216,0.00560751557350159,0,
00:00:13.22,0.0017281788168475,0,
00:00:13.224,-0.00613754102960229,0,
00:00:13.228,-0.00543098617345095,0,
00:00:13.232,0.00909614562988281,0,
00:00:13.236,0.000771807506680489,0,
00:00:13.24,-0.00408295122906566,0,
00:00:13.244,-0.00195265596266836,0,
00:00:13.248,0.00500199710950255,0,
00:00:13.252,0.00224302313290536,0,
00:00:13.256,-0.00560820009559393,0,
00:00:13.26,-0.0031449671369046,0,
