Elapsed Time,Ch1,BioRadio Event,
00:00:00,1.45097029209137,0,
00:00:00.004,-1.38490188121796,0,
00:00:00.008,-1.14383733272552,0,
00:00:00.012,-0.114238448441029,0,
00:00:00.016,0.581424176692963,0,
00:00:00.02,0.711603403091431,0,
00:00:00.024,0.439719617366791,0,
00:00:00.028,0.0642225965857506,0,
00:00:00.032,-0.204318761825562,0,
00:00:00.036,-0.292687356472015,0,
00:00:00.04,-0.216349735856056,0,
00:00:00.044,-0.072426401078701,0,
00:00:00.048,0.0314002670347691,0,
00:00:00.052,0.0773535519838333,0,
00:00:00.056,0.0786651745438576,0,
00:00:00.06,0.048623114824295,0,
00:00:00.064,0.00487731909379363,0,
00:00:00.068,-0.0281978733837605,0,
00:00:00.072,-0.0307542532682419,0,
00:00:00.076,-0.0136489365249872,0,
00:00:00.08,-0.00232418277300894,0,
00:00:00.084,0.00210310844704509,0,
00:00:00.088,0.0019589108414948,0,
00:00:00.092,0.0125725967809558,0,
00:00:00.096,0.00749111687764525,0,
00:00:00.1,-0.00240391073748469,0,
00:00:00.104,-0.00914183910936117,0,
00:00:00.108,0.00236185174435377,0,
00:00:00.112,0.0022017234005034,0,
00:00:00.116,-0.00252485834062099,0,
00:00:00.12,-0.00409941887483001,0,
00:00:00.124,-0.000259495252976194,0,
00:00:00.128,0.0109805688261986,0,
00:00:00.132,-0.00273817800916731,0,
00:00:00.136,-0.00888971053063869,0,
00:00:00.14,-0.000389134074794129,0,
00:00:00.144,0.00783589296042919,0,
00:00:00.148,0.00394526496529579,0,
00:00:00.152,-0.00756022473797202,0,
00:00:00.156,3.59372606908437E-05,0,
00:00:00.16,0.00152256607543677,0,
00:00:00.164,0.00284503004513681,0,
00:00:00.168,-0.00425596069544554,0,
00:00:00.172,-0.00239234045147896,0,
00:00:00.176,0.00496368296444416,0,
00:00:00.18,0.00464175222441554,0,
00:00:00.184,-0.00717267347499728,0,
00:00:00.188,-0.00658809300512075,0,
00:00:00.192,0.00684534292668104,0,
00:00:00.196,0.00540194613859057,0,
00:00:00.2,-0.00160106050316244,0,
00:00:00.204,-0.00492945685982704,0,
00:00:00.208,-0.00174758525099605,0,
00:00:00.212,0.00768675282597542,0,
00:00:00.216,-0.00128823157865554,0,
00:00:00.22,-0.00713552581146359,0,
00:00:00.224,0.00230393745005131,0,
00:00:00.228,0.00546242296695709,0,
00:00:00.232,0.0015323554398492,0,
00:00:00.236,-0.00833099987357855,0,
00:00:00.24,-0.00138635549228638,0,
00:00:00.244,0.00883223488926888,0,
00:00:00.248,-0.000605474226176739,0,
00:00:00.252,-0.00296458275988698,0,
00:00:00.256,-0.00616735266521573,0,
00:00:00.26,0.00779641000553966,0,
00:00:00.264,0.00225561088882387,0,
00:00:00.268,-0.00794680044054985,0,
00:00:00.272,-0.0010655140504241,0,
00:00:00.276,0.00696461414918303,0,
00:00:00.28,0.00556225469335914,0,
00:00:00.284,-0.00744823319837451,0,
00:00:00.288,-0.00538124516606331,0,
00:00:00.292,0.00197859993204474,0,
00:00:00.296,0.00532803731039166,0,
00:00:00.3,-0.000111505003587808,0,
00:00:00.304,-0.00363320764154196,0,
00:00:00.308,0.000823010050226003,0,
00:00:00.312,0.00343703455291688,0,
00:00:00.316,-0.00145504809916019,0,
00:00:00.32,-0.00403685541823506,0,
00:00:00.324,-0.000932508613914251,0,
00:00:00.328,0.00808535795658827,0,
00:00:00.332,0.000782032613642514,0,
00:00:00.336,-0.009336082264781,0,
00:00:00.34,-0.0016605390701443,0,
00:00:00.344,0.00918927136808634,0,
00:00:00.348,0.00201903143897653,0,
00:00:00.352,-0.00663144513964653,0,
00:00:00.356,-0.00574216851964593,0,
00:00:00.36,0.00912431348115206,0,
00:00:00.364,0.00305366748943925,0,
00:00:00.368,-0.0058664632961154,0,
00:00:00.372,-0.00351833458989859,0,
00:00:00.376,0.00270986557006836,0,
00:00:00.38,0.00496284849941731,0,
00:00:00.384,-0.000957062991801649,0,
00:00:00.388,-0.00436578318476677,0,
00:00:00.392,0.000497711065690964,0,
00:00:00.396,0.00350643042474985,0,
00:00:00.4,-0.00117561942897737,0,
00:00:00.404,-0.00375034823082387,0,
00:00:00.408,-0.000763143121730536,0,
00:00:00.412,0.0101898787543178,0,
00:00:00.416,-0.00541053293272853,0,
00:00:00.42,-0.00504438811913133,0,
00:00:00.424,0.00355404359288514,0,
00:00:00.428,0.00269241956993937,0,
00:00:00.432,-0.00218933681026101,0,
00:00:00.436,-0.00392263196408749,0,
00:00:00.44,-0.000288372742943466,0,
00:00:00.444,0.00664216233417392,0,
00:00:00.448,0.0030528421048075,0,
00:00:00.452,-0.00568911293521523,0,
00:00:00.456,-0.00373804476112127,0,
00:00:00.46,0.00433515617623925,0,
00:00:00.464,0.00260827969759703,0,
00:00:00.468,-0.00481729116290808,0,
00:00:00.472,-0.00248425989411771,0,
00:00:00.476,0.00525363907217979,0,
00:00:00.48,0.00292118126526475,0,
00:00:00.484,-0.00292600505053997,0,
00:00:00.488,-0.00486023724079132,0,
00:00:00.492,0.00117879454046488,0,
00:00:00.496,0.00454050628468394,0,
00:00:00.5,0.00163633760530502,0,
00:00:00.504,-0.00759999873116612,0,
00:00:00.508,0.00349788670428097,0,
00:00:00.512,0.00316304224543273,0,
00:00:00.516,-0.00197365530766547,0,
00:00:00.52,-0.00405503250658512,0,
00:00:00.524,-0.000581191154196858,0,
00:00:00.528,0.00846877321600914,0,
00:00:00.532,-0.00110134412534535,0,
00:00:00.536,-0.00739553244784474,0,
00:00:00.54,0.00188542739488184,0,
00:00:00.544,0.00512727675959468,0,
00:00:00.548,0.00138860009610653,0,
00:00:00.552,-0.00622564135119319,0,
00:00:00.556,-0.00324344448745251,0,
00:00:00.56,0.00523377535864711,0,
00:00:00.564,0.00333740585483611,0,
00:00:00.568,-0.00452117109671235,0,
00:00:00.572,-0.00258259661495686,0,
00:00:00.576,0.00703476322814822,0,
00:00:00.58,0.000659086916130036,0,
00:00:00.584,-0.00888027343899012,0,
00:00:00.588,-0.00110516557469964,0,
00:00:00.592,0.0074537587352097,0,
00:00:00.596,0.00404130993410945,0,
00:00:00.6,-0.00514539238065481,0,
00:00:00.604,-0.00370225519873202,0,
00:00:00.608,0.00199781567789614,0,
00:00:00.612,0.00427717342972755,0,
00:00:00.616,-0.00128901179414243,0,
00:00:00.62,-0.006391576025635,0,
00:00:00.624,0.00274406909011304,0,
00:00:00.628,0.00751793570816517,0,
00:00:00.632,-0.00278869224712253,0,
00:00:00.636,-0.0061911535449326,0,
00:00:00.64,5.1018076192122E-05,0,
00:00:00.644,0.00418377248570323,0,
00:00:00.648,0.00192328495904803,0,
00:00:00.652,-0.00706235179677606,0,
00:00:00.656,-0.000211471691727638,0,
00:00:00.66,0.00937653426080942,0,
00:00:00.664,-0.000713253975845873,0,
00:00:00.668,-0.00551140215247869,0,
00:00:00.672,-0.00261144549585879,0,
00:00:00.676,0.00300876353867352,0,
00:00:00.68,0.00467865914106369,0,
00:00:00.684,-0.00142686965409666,0,
00:00:00.688,-0.00469026667997241,0,
00:00:00.692,0.00251238350756466,0,
00:00:00.696,0.00167339132167399,0,
00:00:00.7,-0.00468146707862616,0,
00:00:00.704,-0.0017849956639111,0,
00:00:00.708,0.00386859965510666,0,
00:00:00.712,0.00732867931947112,0,
00:00:00.716,-0.00327219441533089,0,
00:00:00.72,-0.00863548833876848,0,
00:00:00.724,-0.000210037018405274,0,
00:00:00.728,0.0119491387158632,0,
00:00:00.732,-0.00429604714736342,0,
00:00:00.736,-0.00284983008168638,0,
00:00:00.74,-0.00307849608361721,0,
00:00:00.744,0.00438682967796922,0,
00:00:00.748,0.000537095707841218,0,
00:00:00.752,-0.000709767162334174,0,
00:00:00.756,-0.0027568491641432,0,
00:00:00.76,0.00380582758225501,0,
00:00:00.764,0.00186838838271797,0,
00:00:00.768,-0.00524592818692327,0,
00:00:00.772,-0.00254292879253626,0,
00:00:00.776,0.00541370129212737,0,
00:00:00.78,0.00311915366910398,0,
00:00:00.784,-0.00280474056489766,0,
00:00:00.788,-0.00484349858015776,0,
00:00:00.792,0.00112356385216117,0,
00:00:00.796,0.00446535553783178,0,
00:00:00.8,-0.000494528736453503,0,
00:00:00.804,-0.00564452214166522,0,
00:00:00.808,0.00307342642918229,0,
00:00:00.812,0.00741353211924434,0,
00:00:00.816,-0.0031292513012886,0,
00:00:00.82,-0.00861291401088238,0,
00:00:00.824,0.00181981304194778,0,
00:00:00.828,0.00786304846405983,0,
00:00:00.832,-0.00395100330933928,0,
00:00:00.836,-0.00341097754426301,0,
00:00:00.84,0.00205104239284992,0,
00:00:00.844,0.00428101979196072,0,
00:00:00.848,-0.00130853522568941,0,
00:00:00.852,-0.0022838010918349,0,
00:00:00.856,-0.00334008666686714,0,
00:00:00.86,0.00200421735644341,0,
00:00:00.864,0.00449096458032727,0,
00:00:00.868,0.00111946545075625,0,
00:00:00.872,-0.00604606233537197,0,
00:00:00.876,-0.000817645923234522,0,
00:00:00.88,0.00351789104752243,0,
00:00:00.884,-0.00239347433671355,0,
00:00:00.888,-0.000846691720653325,0,
00:00:00.892,0.00345833506435156,0,
00:00:00.896,0.00630747247487307,0,
00:00:00.9,-0.00625130767002702,0,
00:00:00.904,-0.00292270840145648,0,
00:00:00.908,-0.000372368580428883,0,
00:00:00.912,0.00304995873011649,0,
00:00:00.916,-0.00075766391819343,0,
00:00:00.92,-0.00500007765367627,0,
00:00:00.924,0.00604344438761473,0,
00:00:00.928,0.00398774584755301,0,
00:00:00.932,-0.00262318202294409,0,
00:00:00.936,-0.00525506027042866,0,
00:00:00.94,0.000542827066965401,0,
00:00:00.944,0.00406146747991443,0,
00:00:00.948,-0.000598188140429556,0,
00:00:00.952,-0.00343739939853549,0,
00:00:00.956,-0.000757262343540788,0,
00:00:00.96,0.00792847760021687,0,
00:00:00.964,-0.0015816594241187,0,
00:00:00.968,-0.0055276146158576,0,
00:00:00.972,-0.00210638483986259,0,
00:00:00.976,0.00358439236879349,0,
00:00:00.98,0.00710500823333859,0,
00:00:00.984,-0.00542273884639144,0,
00:00:00.988,-0.00450563244521618,0,
00:00:00.992,0.00376967643387616,0,
00:00:00.996,0.00253851525485516,0,
00:00:01,-0.00455437181517482,0,
00:00:01.004,-0.0021585829090327,0,
00:00:01.008,0.00545638892799616,0,
00:00:01.012,0.00295157125219703,0,
00:00:01.016,-0.00301697477698326,0,
00:00:01.02,-0.00706257717683911,0,
00:00:01.024,0.00513527961447835,0,
00:00:01.028,0.00417132861912251,0,
00:00:01.032,-0.0018907617777586,0,
00:00:01.036,-0.00453188735991716,0,
00:00:01.04,-0.00113734044134617,0,
00:00:01.044,0.00606413232162595,0,
00:00:01.048,0.00291640288196504,0,
00:00:01.052,-0.00548802642151713,0,
00:00:01.056,-0.00341532961465418,0,
00:00:01.06,0.00459520611912012,0,
00:00:01.064,0.00272189732640982,0,
00:00:01.068,-0.00483748828992248,0,
00:00:01.072,-0.00464969221502543,0,
00:00:01.076,0.00713717238977551,0,
00:00:01.08,0.00450955936685205,0,
00:00:01.084,-0.00275732483714819,0,
00:00:01.088,-0.00568126887083054,0,
00:00:01.092,0.000181110881385393,0,
00:00:01.096,0.00393184321001172,0,
00:00:01.1,-0.00258910492993891,0,
00:00:01.104,-0.0012764009879902,0,
00:00:01.108,0.00520658632740378,0,
00:00:01.112,0.00216931547038257,0,
00:00:01.116,-0.00372779346071184,0,
00:00:01.12,-0.00531370937824249,0,
00:00:01.124,0.00114453339483589,0,
00:00:01.128,0.00477717909961939,0,
00:00:01.132,-0.000140775897307321,0,
00:00:01.136,-0.00334010343067348,0,
00:00:01.14,-0.000919649086426944,0,
00:00:01.144,0.00768029969185591,0,
00:00:01.148,0.00030073121888563,0,
00:00:01.152,-0.00965763349086046,0,
00:00:01.156,-0.00175137759651989,0,
00:00:01.16,0.00927217677235603,0,
00:00:01.164,0.00216794270090759,0,
00:00:01.168,-0.00650784373283386,0,
00:00:01.172,-0.00361063610762358,0,
00:00:01.176,0.0050653638318181,0,
00:00:01.18,0.0012695100158453,0,
00:00:01.184,-0.000393885507946834,0,
00:00:01.188,-0.00285776401869953,0,
00:00:01.192,0.00350104784592986,0,
00:00:01.196,0.00158065662253648,0,
00:00:01.2,-0.00539453327655792,0,
00:00:01.204,-0.00254257349297404,0,
00:00:01.208,0.00550312828272581,0,
00:00:01.212,0.00322329578921199,0,
00:00:01.216,-0.00273627601563931,0,
00:00:01.22,-0.00482513848692179,0,
00:00:01.224,0.00110478419810534,0,
00:00:01.228,0.00443292828276753,0,
00:00:01.232,-0.00052101444453001,0,
00:00:01.236,-0.00358038255944848,0,
00:00:01.24,0.00110014085657895,0,
00:00:01.244,0.00370486732572317,0,
00:00:01.248,0.000754200853407383,0,
00:00:01.252,-0.00602218927815557,0,
00:00:01.256,-0.000592029711697251,0,
00:00:01.26,0.00375378923490644,0,
00:00:01.264,-0.000183240714250132,0,
00:00:01.268,-0.00280768657103181,0,
00:00:01.272,-0.000322907319059595,0,
00:00:01.276,0.00594781944528222,0,
00:00:01.28,0.00230237259529531,0,
00:00:01.284,-0.00612137792631984,0,
00:00:01.288,-0.003780024824664,0,
00:00:01.292,0.00454953825101256,0,
00:00:01.296,0.00703689875081182,0,
00:00:01.3,-0.00857118237763643,0,
00:00:01.304,-0.00777811044827104,0,
00:00:01.308,0.00683628441765904,0,
00:00:01.312,0.00616550398990512,0,
00:00:01.316,-0.00284304958768189,0,
00:00:01.32,-0.00250289612449706,0,
00:00:01.324,0.00195751874707639,0,
00:00:01.328,0.00558317685499787,0,
00:00:01.332,-0.00620745029300451,0,
00:00:01.336,-0.00453086197376251,0,
00:00:01.34,0.0021109723020345,0,
00:00:01.344,0.00500104809179902,0,
00:00:01.348,0.00155265675857663,0,
00:00:01.352,-0.00585784856230021,0,
00:00:01.356,-0.00292068277485669,0,
00:00:01.36,0.00743828900158405,0,
00:00:01.364,-0.00285406364127994,0,
00:00:01.368,-0.00237785861827433,0,
00:00:01.372,0.00243883300572634,0,
00:00:01.376,0.00408680690452456,0,
00:00:01.38,-0.00175667949952185,0,
00:00:01.384,-0.00267669791355729,0,
00:00:01.388,-0.00352253345772624,0,
00:00:01.392,0.00202905433252454,0,
00:00:01.396,0.00462946202605963,0,
00:00:01.4,-0.000809378398116678,0,
00:00:01.404,-0.00398138072341681,0,
00:00:01.408,0.000841910252347589,0,
00:00:01.412,0.00366295431740582,0,
00:00:01.416,-0.00120761303696781,0,
00:00:01.42,-0.00388547056354582,0,
00:00:01.424,-0.000903855368960649,0,
00:00:01.428,0.00802908651530743,0,
00:00:01.432,-0.00137591920793056,0,
00:00:01.436,-0.00534717505797744,0,
00:00:01.44,5.81009880988859E-05,0,
00:00:01.444,0.00575773464515805,0,
00:00:01.448,-0.00477023655548692,0,
00:00:01.452,-0.00302002229727805,0,
00:00:01.456,0.00294542638584971,0,
00:00:01.46,0.00295346439816058,0,
00:00:01.464,0.00511751929298043,0,
00:00:01.468,-0.00886088982224464,0,
00:00:01.472,-0.000743563403375447,0,
00:00:01.476,0.00388152664527297,0,
00:00:01.48,-0.000362389255315065,0,
00:00:01.484,-0.00315468246117234,0,
00:00:01.488,0.00149194232653826,0,
00:00:01.492,0.00184432661626488,0,
00:00:01.496,0.00483678141608834,0,
00:00:01.5,-0.00643690954893827,0,
00:00:01.504,-0.00424079410731792,0,
00:00:01.508,0.00255865650251508,0,
00:00:01.512,0.00737836677581072,0,
00:00:01.516,-0.00244813738390803,0,
00:00:01.52,-0.00774057768285275,0,
00:00:01.524,0.0023925076238811,0,
00:00:01.528,0.00589127745479345,0,
00:00:01.532,-0.000148768216604367,0,
00:00:01.536,-0.00203658896498382,0,
00:00:01.54,-0.00375477503985167,0,
00:00:01.544,0.00554642826318741,0,
00:00:01.548,-0.00405495148152113,0,
00:00:01.552,-0.00250916252844036,0,
00:00:01.556,0.00093543529510498,0,
00:00:01.56,0.00886170659214258,0,
00:00:01.564,0.000469634862383828,0,
00:00:01.568,-0.00806969776749611,0,
00:00:01.572,-0.0043569803237915,0,
00:00:01.576,0.00306260283105075,0,
00:00:01.58,0.00584636861458421,0,
00:00:01.584,-0.000162998388987035,0,
00:00:01.588,-0.00398005032911897,0,
00:00:01.592,0.00254598027095199,0,
00:00:01.596,0.00126928288955241,0,
00:00:01.6,-0.00518184481188655,0,
00:00:01.604,-0.0021329193841666,0,
00:00:01.608,0.00375688774511218,0,
00:00:01.612,0.00532656768336892,0,
00:00:01.616,-0.00114655948709697,0,
00:00:01.62,-0.0047870404087007,0,
00:00:01.624,0.000130538042867556,0,
00:00:01.628,0.00540979579091072,0,
00:00:01.632,-0.00520829670131207,0,
00:00:01.636,-0.00329359504394233,0,
00:00:01.64,0.00498585449531674,0,
00:00:01.644,0.00318843079730868,0,
00:00:01.648,-0.00246713869273663,0,
00:00:01.652,-0.00451546628028154,0,
00:00:01.656,-0.000791522383224219,0,
00:00:01.66,0.00642070779576898,0,
00:00:01.664,0.00309863407164812,0,
00:00:01.668,-0.00550306076183915,0,
00:00:01.672,-0.00354829570278525,0,
00:00:01.676,0.00652194023132324,0,
00:00:01.68,-0.00142537511419505,0,
00:00:01.684,-0.00452875019982457,0,
00:00:01.688,-0.00108116399496794,0,
00:00:01.692,0.00415225187316537,0,
00:00:01.696,0.00921672396361828,0,
00:00:01.7,-0.00769968330860138,0,
00:00:01.704,-0.00859816838055849,0,
00:00:01.708,0.00530926417559385,0,
00:00:01.712,0.00494278967380524,0,
00:00:01.716,-0.00121583289001137,0,
00:00:01.72,-0.00423189252614975,0,
00:00:01.724,0.000890585652086884,0,
00:00:01.728,0.00386476400308311,0,
00:00:01.732,-0.00102636497467756,0,
00:00:01.736,-0.00589059991762042,0,
00:00:01.74,0.00310964183881879,0,
00:00:01.744,0.00760389445349574,0,
00:00:01.748,-0.00292852311395109,0,
00:00:01.752,-0.00849161110818386,0,
00:00:01.756,0.00184277084190398,0,
00:00:01.76,0.00574287073686719,0,
00:00:01.764,3.53521936631296E-05,0,
00:00:01.768,-0.0017173431115225,0,
00:00:01.772,-0.00348367379046977,0,
00:00:01.776,0.00360159389674664,0,
00:00:01.78,0.00206639454700053,0,
00:00:01.784,-0.0028244168497622,0,
00:00:01.788,-0.00631461385637522,0,
00:00:01.792,0.00586439622566104,0,
00:00:01.796,0.00455448590219021,0,
00:00:01.8,-0.00396468164399266,0,
00:00:01.804,-0.0027864498551935,0,
00:00:01.808,0.00438572838902473,0,
00:00:01.812,0.00211076461710036,0,
00:00:01.816,-0.00333627033978701,0,
00:00:01.82,-0.00484730489552021,0,
00:00:01.824,0.00144109083339572,0,
00:00:01.828,0.00483968248590827,0,
00:00:01.832,-0.000245562550844625,0,
00:00:01.836,-0.00349924340844154,0,
00:00:01.84,-0.00104278197977692,0,
00:00:01.844,0.00763095682486892,0,
00:00:01.848,0.00239150319248438,0,
00:00:01.852,-0.0115867564454675,0,
00:00:01.856,-0.0012730109738186,0,
00:00:01.86,0.0050685927271843,0,
00:00:01.864,0.00127045589033514,0,
00:00:01.868,-0.00205160863697529,0,
00:00:01.872,-0.000333131611114368,0,
00:00:01.876,0.00757441855967045,0,
00:00:01.88,-0.00224983715452254,0,
00:00:01.884,-0.00609482964500785,0,
00:00:01.888,-0.00237050582654774,0,
00:00:01.892,0.00568765122443438,0,
00:00:01.896,0.0032408214174211,0,
00:00:01.9,-0.004889159463346,0,
00:00:01.904,-0.00291831325739622,0,
00:00:01.908,0.00481372093781829,0,
00:00:01.912,0.00267996196635067,0,
00:00:01.916,-0.00294003915041685,0,
00:00:01.92,-0.00473176408559084,0,
00:00:01.924,0.00133699586149305,0,
00:00:01.928,0.00464872783049941,0,
00:00:01.932,-0.000406764476792887,0,
00:00:01.936,-0.00565019389614463,0,
00:00:01.94,0.00301553821191192,0,
00:00:01.944,0.0052741440013051,0,
00:00:01.948,-0.00119360024109483,0,
00:00:01.952,-0.00490374863147736,0,
00:00:01.956,-0.00204106536693871,0,
00:00:01.96,0.0094496626406908,0,
00:00:01.964,-0.00339744728989899,0,
00:00:01.968,-0.00870861206203699,0,
00:00:01.972,0.00230859685689211,0,
00:00:01.976,0.00648677861317992,0,
00:00:01.98,0.00266895606182516,0,
00:00:01.984,-0.00560286547988653,0,
00:00:01.988,-0.0033178897574544,0,
00:00:01.992,0.0047570439055562,0,
00:00:01.996,0.00281667103990912,0,
00:00:02,-0.00485006161034107,0,
00:00:02.004,-0.00266042328439653,0,
00:00:02.008,0.00506064249202609,0,
00:00:02.012,0.00279722083359957,0,
00:00:02.016,-0.00295798829756677,0,
00:00:02.02,-0.0069010341539979,0,
00:00:02.024,0.00528888497501612,0,
00:00:02.028,0.00425492413341999,0,
00:00:02.032,-0.00188380340114236,0,
00:00:02.036,-0.00664846366271377,0,
00:00:02.04,0.00286256102845073,0,
00:00:02.044,0.00777132716029882,0,
00:00:02.048,-0.000534779450390488,0,
00:00:02.052,-0.00814174301922321,0,
00:00:02.056,-0.0058373436331749,0,
00:00:02.06,0.0119752949103713,0,
00:00:02.064,-7.96554231783375E-05,0,
00:00:02.068,-0.00495655415579677,0,
00:00:02.072,-0.00194343680050224,0,
00:00:02.076,0.00558452354744077,0,
00:00:02.08,0.00284786778502166,0,
00:00:02.084,-0.00531987845897675,0,
00:00:02.088,-0.00321378721855581,0,
00:00:02.092,0.00470788311213255,0,
00:00:02.096,0.0027220961637795,0,
00:00:02.1,-0.00490905391052365,0,
00:00:02.104,-0.00473503023386002,0,
00:00:02.108,0.00707949372008443,0,
00:00:02.112,0.00449256272986531,0,
00:00:02.116,-0.00481903692707419,0,
00:00:02.12,-0.00160393805708736,0,
00:00:02.124,0.00194572331383824,0,
00:00:02.128,0.000501748872920871,0,
00:00:02.132,-0.0052520171739161,0,
00:00:02.136,-0.00372136011719704,0,
00:00:02.14,0.0063382089138031,0,
00:00:02.144,0.00735852494835854,0,
00:00:02.148,-0.000896388723049313,0,
00:00:02.152,-0.00578812509775162,0,
00:00:02.156,-0.00113086588680744,0,
00:00:02.16,0.00252212025225163,0,
00:00:02.164,0.000762507261242718,0,
00:00:02.168,-0.00735749956220388,0,
00:00:02.172,0.000177340407390147,0,
00:00:02.176,0.0100271431729198,0,
00:00:02.18,-0.000174742453964427,0,
00:00:02.184,-0.00526351248845458,0,
00:00:02.188,-0.000561848341021687,0,
00:00:02.192,0.00293470825999975,0,
00:00:02.196,0.000875093217473477,0,
00:00:02.2,-0.00543485675007105,0,
00:00:02.204,-0.00414691073819995,0,
00:00:02.208,0.00804093480110168,0,
00:00:02.212,0.00728636980056763,0,
00:00:02.216,-0.00656491937115788,0,
00:00:02.22,-0.00549940252676606,0,
00:00:02.224,0.00131697754841298,0,
00:00:02.228,0.0067302817478776,0,
00:00:02.232,-0.00245669460855424,0,
00:00:02.236,-0.00737027730792761,0,
00:00:02.24,0.00282320752739906,0,
00:00:02.244,0.0082459319382906,0,
00:00:02.248,-0.0020552386995405,0,
00:00:02.252,-0.00791454687714577,0,
00:00:02.256,0.00195649638772011,0,
00:00:02.26,0.00343596609309316,0,
00:00:02.264,0.00581586547195911,0,
00:00:02.268,-0.00844832882285118,0,
00:00:02.272,-0.0027527092024684,0,
00:00:02.276,0.00779215199872851,0,
00:00:02.28,0.00120047829113901,0,
00:00:02.284,-0.00670642917975783,0,
00:00:02.288,-0.00533751025795937,0,
00:00:02.292,0.00963482353836298,0,
00:00:02.296,0.00132743606809527,0,
00:00:02.3,-0.00378888193517923,0,
00:00:02.304,0.000111319386633113,0,
00:00:02.308,0.00282469368539751,0,
00:00:02.312,-0.0017098686657846,0,
00:00:02.316,-0.00396738387644291,0,
00:00:02.32,-0.000706282968167216,0,
00:00:02.324,0.00415049726143479,0,
00:00:02.328,0.00692359730601311,0,
00:00:02.332,-0.0038711610250175,0,
00:00:02.336,-0.00696203112602234,0,
00:00:02.34,-0.000184601114597172,0,
00:00:02.344,0.00642799818888307,0,
00:00:02.348,-0.00388521957211196,0,
00:00:02.352,-0.00449467450380325,0,
00:00:02.356,0.00715426541864872,0,
00:00:02.36,0.00451613450422883,0,
00:00:02.364,-0.00277944165281951,0,
00:00:02.368,-0.0057457210496068,0,
00:00:02.372,9.27152359508909E-05,0,
00:00:02.376,0.0038513105828315,0,
00:00:02.38,0.00151278043631464,0,
00:00:02.384,-0.00524115236476064,0,
00:00:02.388,-0.00221783760935068,0,
00:00:02.392,0.00578658981248736,0,
00:00:02.396,0.00333479163236916,0,
00:00:02.4,-0.00487185455858707,0,
00:00:02.404,-0.00299862818792462,0,
00:00:02.408,0.00467782933264971,0,
00:00:02.412,0.00255069183185697,0,
00:00:02.416,-0.00301967305131257,0,
00:00:02.42,-0.00682832859456539,0,
00:00:02.424,0.00540893990546465,0,
00:00:02.428,0.00435113441199064,0,
00:00:02.432,-0.0018428317271173,0,
00:00:02.436,-0.00665737455710769,0,
00:00:02.44,0.00282831722870469,0,
00:00:02.444,0.00773698277771473,0,
00:00:02.448,-0.00263020792044699,0,
00:00:02.452,-0.00824481435120106,0,
00:00:02.456,-0.000135725786094554,0,
00:00:02.46,0.00975458975881338,0,
00:00:02.464,-0.00247973389923573,0,
00:00:02.468,-0.00130805384833366,0,
00:00:02.472,-0.000840917869936675,0,
00:00:02.476,0.00161344849038869,0,
00:00:02.48,-0.0020705102942884,0,
00:00:02.484,-0.00354701210744679,0,
00:00:02.488,-3.30602642861777E-06,0,
00:00:02.492,0.00884511414915323,0,
00:00:02.496,0.00109123927541077,0,
00:00:02.5,-0.00736369052901864,0,
00:00:02.504,-0.00394502887502313,0,
00:00:02.508,0.00517046079039574,0,
00:00:02.512,0.00157280336134136,0,
00:00:02.516,-0.00219091167673469,0,
00:00:02.52,0.00133200059644878,0,
00:00:02.524,0.00108608789741993,0,
00:00:02.528,0.00407745270058513,0,
00:00:02.532,-0.00684785656630993,0,
00:00:02.536,-0.00633204961195588,0,
00:00:02.54,0.00684065092355013,0,
00:00:02.544,0.00732499593868852,0,
00:00:02.548,-0.00787458755075932,0,
00:00:02.552,-0.00267733121290803,0,
00:00:02.556,0.00554654002189636,0,
00:00:02.56,0.00293928245082498,0,
00:00:02.564,-0.00110108708031476,0,
00:00:02.568,-0.00920394249260426,0,
00:00:02.572,-0.000725442951079458,0,
00:00:02.576,0.0100655546411872,0,
00:00:02.58,0.00244312197901309,0,
00:00:02.584,-0.00873819086700678,0,
00:00:02.588,0.000102706013421994,0,
00:00:02.592,0.00443573528900743,0,
00:00:02.596,0.00173815328162163,0,
00:00:02.6,-0.0054540173150599,0,
00:00:02.604,-0.00261299568228424,0,
00:00:02.608,0.00546858459711075,0,
00:00:02.612,0.00321495672687888,0,
00:00:02.616,-0.00481278356164694,0,
00:00:02.62,-0.00285370275378227,0,
00:00:02.624,0.00273822946473956,0,
00:00:02.628,0.00667582266032696,0,
00:00:02.632,-0.00542229088023305,0,
00:00:02.636,-0.00427791103720665,0,
00:00:02.64,0.00193514570128173,0,
00:00:02.644,0.00464546354487538,0,
00:00:02.648,-0.000833136553410441,0,
00:00:02.652,-0.00403352826833725,0,
00:00:02.656,0.000803735572844744,0,
00:00:02.66,0.00366010540165007,0,
00:00:02.664,-0.00118081283289939,0,
00:00:02.668,-0.00177254865411669,0,
00:00:02.672,-0.00284965895116329,0,
00:00:02.676,0.00432466715574265,0,
00:00:02.68,0.00249676522798836,0,
00:00:02.684,-0.00484702549874783,0,
00:00:02.688,-0.00454075261950493,0,
00:00:02.692,0.0072373622097075,0,
00:00:02.696,0.00453632744029164,0,
00:00:02.7,-0.00280052679590881,0,
00:00:02.704,-0.00575501751154661,0,
00:00:02.708,0.00219314498826861,0,
00:00:02.712,0.00192444503773004,0,
00:00:02.716,-0.00423146039247513,0,
00:00:02.72,-0.0035109487362206,0,
00:00:02.724,0.00597016140818596,0,
00:00:02.728,0.00890404917299747,0,
00:00:02.732,-0.00324977445416152,0,
00:00:02.736,-0.00961943436414003,0,
00:00:02.74,0.00076483516022563,0,
00:00:02.744,0.00726525764912367,0,
00:00:02.748,-0.00192836322821677,0,
00:00:02.752,-0.00508706644177437,0,
00:00:02.756,0.000791004858911037,0,
00:00:02.76,0.00437249429523945,0,
00:00:02.764,-0.000378222175640985,0,
00:00:02.768,-0.00338760390877724,0,
00:00:02.772,0.00122606777586043,0,
00:00:02.776,0.00372744258493185,0,
00:00:02.78,-0.00137523154262453,0,
00:00:02.784,-0.00412520207464695,0,
00:00:02.788,0.000989449792541564,0,
00:00:02.792,0.00390609377063811,0,
00:00:02.796,0.00105645693838596,0,
00:00:02.8,-0.00578853255137801,0,
00:00:02.804,-0.0025738556869328,0,
00:00:02.808,0.00362544041126966,0,
00:00:02.812,0.00749853067100048,0,
00:00:02.816,-0.00502366153523326,0,
00:00:02.82,-0.00431927340105176,0,
00:00:02.824,0.00164312007836998,0,
00:00:02.828,0.00432702992111444,0,
00:00:02.832,-0.00103242218028754,0,
00:00:02.836,-0.00407830253243446,0,
00:00:02.84,0.000868360104504973,0,
00:00:02.844,0.00376094924286008,0,
00:00:02.848,-0.00110206042882055,0,
00:00:02.852,-0.00381628493778408,0,
00:00:02.856,-0.000883348577190191,0,
00:00:02.86,0.0080133518204093,0,
00:00:02.864,0.00067009509075433,0,
00:00:02.868,-0.00942333415150642,0,
00:00:02.872,-0.00169591594021767,0,
00:00:02.876,0.00919940322637558,0,
00:00:02.88,-2.43670056079281E-05,0,
00:00:02.884,-0.00462464476004243,0,
00:00:02.888,-0.00200691958889365,0,
00:00:02.892,0.00525197153910995,0,
00:00:02.896,0.00253600953146815,0,
00:00:02.9,-0.00543957483023405,0,
00:00:02.904,-0.00313643924891949,0,
00:00:02.908,0.00281077739782631,0,
00:00:02.912,0.00486836675554514,0,
00:00:02.916,-0.00109385990072042,0,
00:00:02.92,-0.0044433125294745,0,
00:00:02.924,0.0025794159155339,0,
00:00:02.928,0.001591443317011,0,
00:00:02.932,-0.00482341274619102,0,
00:00:02.936,-0.00190489576198161,0,
00:00:02.94,0.00381148396991193,0,
00:00:02.944,0.00733224116265774,0,
00:00:02.948,-0.00531060714274645,0,
00:00:02.952,-0.00661908276379108,0,
00:00:02.956,0.00353342434391379,0,
00:00:02.96,0.00808069482445717,0,
00:00:02.964,-0.00273820548318326,0,
00:00:02.968,-0.00647663837298751,0,
00:00:02.972,-0.00444192998111248,0,
00:00:02.976,0.0100020999088883,0,
00:00:02.98,0.00528030283749104,0,
00:00:02.984,-0.0102282743901014,0,
00:00:02.988,-0.00358375417999923,0,
00:00:02.992,0.00600866368040442,0,
00:00:02.996,0.00398295884951949,0,
00:00:03,-0.00436520483344793,0,
00:00:03.004,-0.00280097057111561,0,
00:00:03.008,0.00462747970595956,0,
00:00:03.012,0.00239458424039185,0,
00:00:03.016,-0.00315877003595233,0,
00:00:03.02,-0.0068911612033844,0,
00:00:03.024,0.00542090646922588,0,
00:00:03.028,0.00440309150144458,0,
00:00:03.032,-0.00178928859531879,0,
00:00:03.036,-0.00454997410997748,0,
00:00:03.04,0.000858228071592748,0,
00:00:03.044,0.00400669453665614,0,
00:00:03.048,-0.000849405885674059,0,
00:00:03.052,-0.00577295664697886,0,
00:00:03.056,0.00521579477936029,0,
00:00:03.06,0.00559388380497694,0,
00:00:03.064,-0.00670459493994713,0,
00:00:03.068,-0.00466470094397664,0,
00:00:03.072,0.000255996303167194,0,
00:00:03.076,0.00936055183410645,0,
00:00:03.08,-0.000670606095809489,0,
00:00:03.084,-0.0053445640951395,0,
00:00:03.088,-0.00242230505682528,0,
00:00:03.092,0.0072759510949254,0,
00:00:03.096,0.000741434632800519,0,
00:00:03.1,-0.00477040512487292,0,
00:00:03.104,-0.00720105180516839,0,
00:00:03.108,0.00611217133700848,0,
00:00:03.112,0.00534650776535273,0,
00:00:03.116,-0.00116021116264164,0,
00:00:03.12,-0.0064930459484458,0,
00:00:03.124,0.00466968445107341,0,
00:00:03.128,0.00330609083175659,0,
00:00:03.132,-0.00260446057654917,0,
00:00:03.136,-0.0048395381309092,0,
00:00:03.14,0.00100704305805266,0,
00:00:03.144,0.0064272521995008,0,
00:00:03.148,-0.00251179770566523,0,
00:00:03.152,-0.00725443102419376,0,
00:00:03.156,0.00296570430509746,0,
00:00:03.16,0.00832124520093203,0,
00:00:03.164,-0.00206551561132073,0,
00:00:03.168,-0.00590228941291571,0,
00:00:03.172,-0.00216563371941447,0,
00:00:03.176,0.00579857034608722,0,
00:00:03.18,0.00321707664988935,0,
00:00:03.184,-0.00500714126974344,0,
00:00:03.188,-0.00305644376203418,0,
00:00:03.192,0.00471488758921623,0,
00:00:03.196,0.00264273188076913,0,
00:00:03.2,-0.00500259408727288,0,
00:00:03.204,-0.00271992338821292,0,
00:00:03.208,0.00508914841338992,0,
00:00:03.212,0.00286875641904771,0,
00:00:03.216,-0.00496620731428266,0,
00:00:03.22,-0.00281315390020609,0,
00:00:03.224,0.00288294674828649,0,
00:00:03.228,0.00474734138697386,0,
00:00:03.232,-0.0033598504960537,0,
00:00:03.236,-0.00262081576511264,0,
00:00:03.24,0.00415454059839249,0,
00:00:03.244,0.00177998654544353,0,
00:00:03.248,-0.00353808188810945,0,
00:00:03.252,-0.004854173399508,0,
00:00:03.256,-0.000505436444655061,0,
00:00:03.26,0.0090538477525115,0,
00:00:03.264,-0.000461680203443393,0,
00:00:03.268,-0.00492254411801696,0,
00:00:03.272,-6.56979500490706E-06,0,
00:00:03.276,0.00334780034609139,0,
00:00:03.28,-0.00107264367397875,0,
00:00:03.284,-0.00356850563548505,0,
00:00:03.288,-0.000638031051494181,0,
00:00:03.292,0.00813692342489958,0,
00:00:03.296,0.000661394733469933,0,
00:00:03.3,-0.00743364961817861,0,
00:00:03.304,-0.00376718793995678,0,
00:00:03.308,0.00542052742093802,0,
00:00:03.312,0.0038351365365088,0,
00:00:03.316,-0.00409630639478564,0,
00:00:03.32,-0.00241392967291176,0,
00:00:03.324,0.00488682277500629,0,
00:00:03.328,0.00244283745996654,0,
00:00:03.332,-0.00327015551738441,0,
00:00:03.336,-0.009132020175457,0,
00:00:03.34,0.00519105512648821,0,
00:00:03.344,0.0121175013482571,0,
00:00:03.348,-0.00390870403498411,0,
00:00:03.352,-0.0105297509580851,0,
00:00:03.356,0.00065490190172568,0,
00:00:03.36,0.00777795584872365,0,
00:00:03.364,-0.00130118057131767,0,
00:00:03.368,-0.00678855413571,0,
00:00:03.372,0.00279352138750255,0,
00:00:03.376,0.00580409588292241,0,
00:00:03.38,-0.000472063373308629,0,
00:00:03.384,-0.0044256285764277,0,
00:00:03.388,0.000129067761008628,0,
00:00:03.392,0.00313023314811289,0,
00:00:03.396,-0.00137794855982065,0,
00:00:03.4,-0.0037524844519794,0,
00:00:03.404,-0.000640680489595979,0,
00:00:03.408,0.00618433253839612,0,
00:00:03.412,0.00279018748551607,0,
00:00:03.416,-0.00568197388201952,0,
00:00:03.42,-0.00355149991810322,0,
00:00:03.424,0.00248312065377831,0,
00:00:03.428,0.00681429682299495,0,
00:00:03.432,-0.00510031403973699,0,
00:00:03.436,-0.00605691643431783,0,
00:00:03.44,0.00406730826944113,0,
00:00:03.444,0.00837165582925081,0,
00:00:03.448,-0.00271333404816687,0,
00:00:03.452,-0.00869365222752094,0,
00:00:03.456,0.00150719832163304,0,
00:00:03.46,0.007570656016469,0,
00:00:03.464,5.9450128901517E-05,0,
00:00:03.468,-0.0073461108841002,0,
00:00:03.472,-0.00320477643981576,0,
00:00:03.476,0.00601492170244455,0,
00:00:03.48,0.00416460772976279,0,
00:00:03.484,-0.00616342015564442,0,
00:00:03.488,0.001439128536731,0,
00:00:03.492,0.00431143026798964,0,
00:00:03.496,-0.00126573943998665,0,
00:00:03.5,-0.00236848997883499,0,
00:00:03.504,-0.00348801235668361,0,
00:00:03.508,0.00396244693547487,0,
00:00:03.512,0.00455118017271161,0,
00:00:03.516,-0.00661997962743044,0,
00:00:03.52,-0.00385249173268676,0,
00:00:03.524,0.00318884756416082,0,
00:00:03.528,0.00577266421169043,0,
00:00:03.532,-0.00034265749854967,0,
00:00:03.536,-0.00417996803298593,0,
00:00:03.54,0.000317290076054633,0,
00:00:03.544,0.00316872354596853,0,
00:00:03.548,0.000605184410233051,0,
00:00:03.552,-0.00794933177530766,0,
00:00:03.556,0.0016458029858768,0,
00:00:03.56,0.0076895821839571,0,
00:00:03.564,-0.00188260118011385,0,
00:00:03.568,-0.00530545879155397,0,
00:00:03.572,-0.00160041032359004,0,
00:00:03.576,0.00608343351632357,0,
00:00:03.58,0.003202467225492,0,
00:00:03.584,-0.00519806239753962,0,
00:00:03.588,-0.00534793827682734,0,
00:00:03.592,0.00655103474855423,0,
00:00:03.596,0.00424952851608396,0,
00:00:03.6,-0.00478506600484252,0,
00:00:03.604,-0.00141951453406364,0,
00:00:03.608,0.00214035669341683,0,
00:00:03.612,-0.00145643088035285,0,
00:00:03.616,-0.00117866834625602,0,
00:00:03.62,-0.00202188128605485,0,
00:00:03.624,0.00491094961762428,0,
00:00:03.628,0.0026740834582597,0,
00:00:03.632,-0.00499413069337606,0,
00:00:03.636,-0.0027431552298367,0,
00:00:03.64,0.00502468599006534,0,
00:00:03.644,0.00485777342692018,0,
00:00:03.648,-0.00494403997436166,0,
00:00:03.652,-0.00855425000190735,0,
00:00:03.656,0.000949982728343457,0,
00:00:03.66,0.0111171649768949,0,
00:00:03.664,0.000450068881036714,0,
00:00:03.668,-0.00522910384461284,0,
00:00:03.672,-0.000891000032424927,0,
00:00:03.676,0.00254244497045875,0,
00:00:03.68,0.000622457184363157,0,
00:00:03.684,-0.00756774330511689,0,
00:00:03.688,-1.10621131170774E-05,0,
00:00:03.692,0.00991618726402521,0,
00:00:03.696,0.00187469134107232,0,
00:00:03.7,-0.00720817362889647,0,
00:00:03.704,-0.00423034839332104,0,
00:00:03.708,0.00477155018597841,0,
00:00:03.712,0.00129969068802893,0,
00:00:03.716,-0.000183590003871359,0,
00:00:03.72,-0.00263086939230561,0,
00:00:03.724,0.00156502274330705,0,
00:00:03.728,0.00566071039065719,0,
00:00:03.732,-0.00577606819570065,0,
00:00:03.736,-0.00408027367666364,0,
00:00:03.74,0.00235179043374956,0,
00:00:03.744,0.00706755323335528,0,
00:00:03.748,-0.00474100653082132,0,
00:00:03.752,-0.00374470488168299,0,
00:00:03.756,0.00212997500784695,0,
00:00:03.76,0.00454398058354855,0,
00:00:03.764,-0.00107235845644027,0,
00:00:03.768,-0.00425440957769752,0,
00:00:03.772,0.000686819257680327,0,
00:00:03.776,0.00572939729318023,0,
00:00:03.78,-0.00309541658498347,0,
00:00:03.784,-0.00541643984615803,0,
00:00:03.788,-0.00100144546013325,0,
00:00:03.792,0.0088996971026063,0,
00:00:03.796,0.00171365099959075,0,
00:00:03.8,-0.0067240921780467,0,
00:00:03.804,-0.00360708450898528,0,
00:00:03.808,0.00516451383009553,0,
00:00:03.812,0.00343246827833354,0,
00:00:03.816,-0.00441777193918824,0,
00:00:03.82,-0.00255218730308115,0,
00:00:03.824,0.00283855572342873,0,
00:00:03.828,0.00660643400624394,0,
00:00:03.832,-0.00556530291214585,0,
00:00:03.836,-0.00440426170825958,0,
00:00:03.84,0.00394800351932645,0,
00:00:03.844,0.00267120148055255,0,
00:00:03.848,-0.0024371484760195,0,
00:00:03.852,-0.00624299142509699,0,
00:00:03.856,0.00364967156201601,0,
00:00:03.86,0.00633665407076478,0,
00:00:03.864,0.00169421662576497,0,
00:00:03.868,-0.00659838365390897,0,
00:00:03.872,-0.00178012030664831,0,
00:00:03.876,0.00277028791606426,0,
00:00:03.88,-0.000584251363761723,0,
00:00:03.884,-0.00474723242223263,0,
00:00:03.888,0.0041327509097755,0,
00:00:03.892,0.00600805599242449,0,
00:00:03.896,0.00105774076655507,0,
00:00:03.9,-0.00711591262370348,0,
00:00:03.904,-0.00406447239220142,0,
00:00:03.908,0.00481681572273374,0,
00:00:03.912,0.00334244943223894,0,
00:00:03.916,-0.00426806323230267,0,
00:00:03.92,-0.002291553420946,0,
00:00:03.924,0.00307205622084439,0,
00:00:03.928,0.00673369551077485,0,
00:00:03.932,-0.00555046228691936,0,
00:00:03.936,-0.0023840912617743,0,
00:00:03.94,-0.000175515437149443,0,
00:00:03.944,0.00295341853052378,0,
00:00:03.948,-0.00306461006402969,0,
00:00:03.952,0.000914192176423967,0,
00:00:03.956,0.00154784705955535,0,
00:00:03.96,0.00492741446942091,0,
00:00:03.964,-0.00616912124678493,0,
00:00:03.968,-0.0040150829590857,0,
00:00:03.972,0.00056196836521849,0,
00:00:03.976,0.0113733634352684,0,
00:00:03.98,-0.00290067191235721,0,
00:00:03.984,-0.00931436568498611,0,
00:00:03.988,0.00131523096933961,0,
00:00:03.992,0.00362724391743541,0,
00:00:03.996,0.00432902481406927,0,
00:00:04,-0.0038605616427958,0,
00:00:04.004,-0.00283728144131601,0,
00:00:04.008,0.00420801900327206,0,
00:00:04.012,0.00195152254309505,0,
00:00:04.016,-0.003388641634956,0,
00:00:04.02,-0.00479364534839988,0,
00:00:04.024,0.00362204690463841,0,
00:00:04.028,0.00296096433885396,0,
00:00:04.032,-0.00183455168735236,0,
00:00:04.036,-0.00574608333408833,0,
00:00:04.04,0.00382732623256743,0,
00:00:04.044,0.00621870206668973,0,
00:00:04.048,-0.00271670729853213,0,
00:00:04.052,-0.00081242504529655,0,
00:00:04.056,-0.00267769792117178,0,
00:00:04.06,0.00344568584114313,0,
00:00:04.064,-0.000742744014132768,0,
00:00:04.068,-0.00778002617880702,0,
00:00:04.072,0.00923785287886858,0,
00:00:04.076,0.0114592304453254,0,
00:00:04.08,-0.0140611743554473,0,
00:00:04.084,-0.0105190426111221,0,
00:00:04.088,-0.000354449584847316,0,
00:00:04.092,0.0102883446961641,0,
00:00:04.096,0.00496957916766405,0,
00:00:04.1,-0.00143410533200949,0,
00:00:04.104,-0.00191804755013436,0,
00:00:04.108,0.00539757730439305,0,
00:00:04.112,-0.00379373598843813,0,
00:00:04.116,-0.00656948471441865,0,
00:00:04.12,-0.00199380028061569,0,
00:00:04.124,0.0043363650329411,0,
00:00:04.128,0.00791407562792301,0,
00:00:04.132,-0.00284935673698783,0,
00:00:04.136,-0.0084540294483304,0,
00:00:04.14,0.00185510620940477,0,
00:00:04.144,0.00572002027183771,0,
00:00:04.148,-1.51929734784062E-05,0,
00:00:04.152,-0.00177409150637686,0,
00:00:04.156,-0.00352632673457265,0,
00:00:04.16,0.00358220259658992,0,
00:00:04.164,-8.29536838864442E-06,0,
00:00:04.168,-0.00291282776743174,0,
00:00:04.172,0.00146742456126958,0,
00:00:04.176,0.00374091230332851,0,
00:00:04.18,0.000606383895501494,0,
00:00:04.184,-0.00619189068675041,0,
00:00:04.188,-0.00276333908550441,0,
00:00:04.192,0.0057255788706243,0,
00:00:04.196,0.0056657544337213,0,
00:00:04.2,-0.010665281675756,0,
00:00:04.204,-0.00668021617457271,0,
00:00:04.208,0.0200175084173679,0,
00:00:04.212,0.00892801862210035,0,
00:00:04.216,-0.022402310743928,0,
00:00:04.22,-0.0188049860298634,0,
00:00:04.224,0.0236961804330349,0,
00:00:04.228,0.029181519523263,0,
00:00:04.232,-0.0226169694215059,0,
00:00:04.236,-0.0230114422738552,0,
00:00:04.24,0.00385264866054058,0,
00:00:04.244,0.0100528076291084,0,
00:00:04.248,0.00262107164599001,0,
00:00:04.252,-0.000874157878570259,0,
00:00:04.256,0.00489188730716705,0,
00:00:04.26,0.00613025948405266,0,
00:00:04.264,-0.00370907527394593,0,
00:00:04.268,-0.0128697790205479,0,
00:00:04.272,-0.00292399548925459,0,
00:00:04.276,0.00777717167511582,0,
00:00:04.28,-0.00487156398594379,0,
00:00:04.284,0.0124681191518903,0,
00:00:04.288,0.00776973599568009,0,
00:00:04.292,-0.00773236667737365,0,
00:00:04.296,-0.0135247437283397,0,
00:00:04.3,-0.00694933440536261,0,
00:00:04.304,0.00567724136635661,0,
00:00:04.308,0.0107127605006099,0,
00:00:04.312,0.00367965362966061,0,
00:00:04.316,-0.0109875919297338,0,
00:00:04.32,0.0177902691066265,0,
00:00:04.324,0.0166311338543892,0,
00:00:04.328,-0.028538204729557,0,
00:00:04.332,-0.0425851307809353,0,
00:00:04.336,0.019591698423028,0,
00:00:04.34,0.0608323141932487,0,
00:00:04.344,-0.0199171230196953,0,
00:00:04.348,-0.0447184965014458,0,
00:00:04.352,-0.00159716419875622,0,
00:00:04.356,0.0430411919951439,0,
00:00:04.36,0.00892143789678812,0,
00:00:04.364,-0.0210708901286125,0,
00:00:04.368,-0.0194780752062798,0,
00:00:04.372,0.00229784869588912,0,
00:00:04.376,0.0166925135999918,0,
00:00:04.38,0.00919180084019899,0,
00:00:04.384,-0.00755277881398797,0,
00:00:04.388,-0.000960073724854738,0,
00:00:04.392,0.00240748142823577,0,
00:00:04.396,-0.0170264970511198,0,
00:00:04.4,-0.00377944228239357,0,
00:00:04.404,0.0256275031715631,0,
00:00:04.408,0.00222556106746197,0,
00:00:04.412,-0.0205230880528688,0,
00:00:04.416,-0.00898249540477991,0,
00:00:04.42,0.02399349398911,0,
00:00:04.424,0.00782523769885302,0,
00:00:04.428,-0.00965388771146536,0,
00:00:04.432,-0.0266857761889696,0,
00:00:04.436,-0.00693417992442846,0,
00:00:04.44,0.0450435429811478,0,
00:00:04.444,0.0210802759975195,0,
00:00:04.448,-0.0479187443852425,0,
00:00:04.452,-0.00949057936668396,0,
00:00:04.456,0.0544689334928989,0,
00:00:04.46,-0.0378384850919247,0,
00:00:04.464,-0.0253363884985447,0,
00:00:04.468,0.0242958143353462,0,
00:00:04.472,-0.00054484949214384,0,
00:00:04.476,-0.00673507945612073,0,
00:00:04.48,0.00955372489988804,0,
00:00:04.484,0.0262729953974485,0,
00:00:04.488,-0.0146436505019665,0,
00:00:04.492,-0.0119012743234634,0,
00:00:04.496,-0.000942621089052409,0,
00:00:04.5,-0.00530758826062083,0,
00:00:04.504,0.00216234056279063,0,
00:00:04.508,0.0129586132243276,0,
00:00:04.512,-0.00222475454211235,0,
00:00:04.516,-0.00527555635198951,0,
00:00:04.52,-0.00723320292308927,0,
00:00:04.524,0.00183175096753985,0,
00:00:04.528,-0.0137458303943276,0,
00:00:04.532,0.0237021781504154,0,
00:00:04.536,0.0513446517288685,0,
00:00:04.54,-0.0283563416451216,0,
00:00:04.544,-0.0596429444849491,0,
00:00:04.548,-0.0183625556528568,0,
00:00:04.552,0.0453633032739162,0,
00:00:04.556,0.0194596331566572,0,
00:00:04.56,-0.00453508319333196,0,
00:00:04.564,-0.0051422780379653,0,
00:00:04.568,-0.00538292014971375,0,
00:00:04.572,0.00478841830044985,0,
00:00:04.576,0.00176595710217953,0,
00:00:04.58,-0.00666075712069869,0,
00:00:04.584,1.37807464852813E-05,0,
00:00:04.588,-0.00978645123541355,0,
00:00:04.592,0.00146905495785177,0,
00:00:04.596,0.0281489677727222,0,
00:00:04.6,-0.000447543105110526,0,
00:00:04.604,-0.0254136212170124,0,
00:00:04.608,-0.0127951828762889,0,
00:00:04.612,0.00616110395640135,0,
00:00:04.616,0.0267395600676537,0,
00:00:04.62,0.00562406796962023,0,
00:00:04.624,-0.020843755453825,0,
00:00:04.628,-0.0101101882755756,0,
00:00:04.632,0.00402902299538255,0,
00:00:04.636,0.0139758223667741,0,
00:00:04.64,0.00358683173544705,0,
00:00:04.644,-0.00353053607977927,0,
00:00:04.648,-0.00966074969619513,0,
00:00:04.652,-0.00816884730011225,0,
00:00:04.656,-0.00425052409991622,0,
00:00:04.66,0.02415382117033,0,
00:00:04.664,0.0252004843205214,0,
00:00:04.668,-0.0179492980241776,0,
00:00:04.672,-0.0284342579543591,0,
00:00:04.676,-0.00449699629098177,0,
00:00:04.68,0.00296194013208151,0,
00:00:04.684,0.00899566058069468,0,
00:00:04.688,0.0111212413758039,0,
00:00:04.692,0.00497076427564025,0,
00:00:04.696,-0.00157653982751071,0,
00:00:04.7,-0.00279152952134609,0,
00:00:04.704,-0.0107685346156359,0,
00:00:04.708,-0.0021986763458699,0,
00:00:04.712,0.00712563237175345,0,
00:00:04.716,-0.00186722166836262,0,
00:00:04.72,-0.00272056041285396,0,
00:00:04.724,0.0182616040110588,0,
00:00:04.728,0.000578551786020398,0,
00:00:04.732,-0.0177254192531109,0,
00:00:04.736,-0.0165000334382057,0,
00:00:04.74,0.00519893830642104,0,
00:00:04.744,0.0333210863173008,0,
00:00:04.748,-0.00171549478545785,0,
00:00:04.752,-0.0275070201605558,0,
00:00:04.756,-0.00496493745595217,0,
00:00:04.76,0.0160798486322165,0,
00:00:04.764,0.0145581988617778,0,
00:00:04.768,-0.016663558781147,0,
00:00:04.772,-0.00411994894966483,0,
00:00:04.776,0.0024640136398375,0,
00:00:04.78,0.00390740716829896,0,
00:00:04.784,0.00451216474175453,0,
00:00:04.788,0.00866810977458954,0,
00:00:04.792,-0.00857967883348465,0,
00:00:04.796,-0.0139171648770571,0,
00:00:04.8,-0.0065178107470274,0,
00:00:04.804,0.0065026581287384,0,
00:00:04.808,0.0134890750050545,0,
00:00:04.812,0.00615993747487664,0,
00:00:04.816,-0.00212823087349534,0,
00:00:04.82,-0.0122339650988579,0,
00:00:04.824,-0.00564203737303615,0,
00:00:04.828,-0.00188003689981997,0,
00:00:04.832,0.018006069585681,0,
00:00:04.836,0.00848166923969984,0,
00:00:04.84,0.00216443929821253,0,
00:00:04.844,-0.0155335776507854,0,
00:00:04.848,-0.0253126509487629,0,
00:00:04.852,-0.00190631649456918,0,
00:00:04.856,0.0219733640551567,0,
00:00:04.86,0.0120789771899581,0,
00:00:04.864,0.00894747860729694,0,
00:00:04.868,-0.00515707302838564,0,
00:00:04.872,-0.0204854551702738,0,
00:00:04.876,0.00408291816711426,0,
00:00:04.88,0.00351589662022889,0,
00:00:04.884,-0.00321278884075582,0,
00:00:04.888,0.00321448920294642,0,
00:00:04.892,-0.00811843108385801,0,
00:00:04.896,0.0159886553883553,0,
00:00:04.9,0.00705032143741846,0,
00:00:04.904,-0.0238570868968964,0,
00:00:04.908,-0.000531776051502675,0,
00:00:04.912,0.0151247130706906,0,
00:00:04.916,-0.00631634658202529,0,
00:00:04.92,-0.00693272054195404,0,
00:00:04.924,0.00518505414947867,0,
00:00:04.928,0.012304269708693,0,
00:00:04.932,0.0027584289200604,0,
00:00:04.936,-0.0120415771380067,0,
00:00:04.94,-0.00419552018865943,0,
00:00:04.944,-0.0024842475540936,0,
00:00:04.948,-0.00299495528452098,0,
00:00:04.952,0.000895060540642589,0,
00:00:04.956,0.0163370985537767,0,
00:00:04.96,0.00696649681776762,0,
00:00:04.964,-0.00849724933505058,0,
00:00:04.968,-0.00719268014654517,0,
00:00:04.972,-0.0165415517985821,0,
00:00:04.976,0.0050102798268199,0,
00:00:04.98,0.0279169920831919,0,
00:00:04.984,-0.0076298494823277,0,
00:00:04.988,-0.000749998318497092,0,
00:00:04.992,-0.00573994871228933,0,
00:00:04.996,-0.011719255708158,0,
00:00:05,-0.0047129150480032,0,
00:00:05.004,0.00753804156556726,0,
00:00:05.008,0.00947995204478502,0,
00:00:05.012,0.00961819663643837,0,
00:00:05.016,0.00460893101990223,0,
00:00:05.02,-0.0143035463988781,0,
00:00:05.024,-0.00660128286108375,0,
00:00:05.028,-0.00352030480280519,0,
00:00:05.032,-0.00269984197802842,0,
00:00:05.036,0.00389903760515153,0,
00:00:05.04,0.015225694514811,0,
00:00:05.044,-0.00255122315138578,0,
00:00:05.048,-0.00495273992419243,0,
00:00:05.052,0.0059534041211009,0,
00:00:05.056,0.00278524006716907,0,
00:00:05.06,-0.00464733829721808,0,
00:00:05.064,-0.0197179391980171,0,
00:00:05.068,-0.00552603229880333,0,
00:00:05.072,0.0126905767247081,0,
00:00:05.076,0.0234327223151922,0,
00:00:05.08,-0.00201052846387029,0,
00:00:05.084,-0.0137855429202318,0,
00:00:05.088,-0.00372011982835829,0,
00:00:05.092,0.00480786710977554,0,
00:00:05.096,-0.0104277785867453,0,
00:00:05.1,0.00605328707024455,0,
00:00:05.104,0.0171749759465456,0,
00:00:05.108,-0.00551773980259895,0,
00:00:05.112,-0.0160678643733263,0,
00:00:05.116,-0.00803377199918032,0,
00:00:05.12,0.0065583111718297,0,
00:00:05.124,0.0184607189148664,0,
00:00:05.128,0.00703526474535465,0,
00:00:05.132,-0.00509719038382173,0,
00:00:05.136,-0.0181208271533251,0,
00:00:05.14,-0.00389912840910256,0,
00:00:05.144,0.00386683223769069,0,
00:00:05.148,0.00574645958840847,0,
00:00:05.152,0.0019086921820417,0,
00:00:05.156,0.0051681324839592,0,
00:00:05.16,-0.00139663170557469,0,
00:00:05.164,-0.00956692732870579,0,
00:00:05.168,-0.00285323476418853,0,
00:00:05.172,0.0183054748922586,0,
00:00:05.176,-0.00398956472054124,0,
00:00:05.18,0.00488326512277126,0,
00:00:05.184,-0.0136177269741893,0,
00:00:05.188,-0.0154353464022279,0,
00:00:05.192,0.0102641386911273,0,
00:00:05.196,0.00494304671883583,0,
00:00:05.2,0.00584628572687507,0,
00:00:05.204,0.00463196123018861,0,
00:00:05.208,-0.00291503127664328,0,
00:00:05.212,-0.00227563129737973,0,
00:00:05.216,-0.00889282021671534,0,
00:00:05.22,-0.00238510104827583,0,
00:00:05.224,0.0121721290051937,0,
00:00:05.228,0.00606149295344949,0,
00:00:05.232,-0.00862152874469757,0,
00:00:05.236,-0.0127588948234916,0,
00:00:05.24,0.00118679169099778,0,
00:00:05.244,0.0266892798244953,0,
00:00:05.248,0.00419677048921585,0,
00:00:05.252,-0.0296474788337946,0,
00:00:05.256,-0.00414143688976765,0,
00:00:05.26,0.00852622371166945,0,
00:00:05.264,0.00341848563402891,0,
00:00:05.268,0.0106445262208581,0,
00:00:05.272,-0.00633623683825135,0,
00:00:05.276,-0.00819845218211412,0,
00:00:05.28,-0.0013966835103929,0,
00:00:05.284,0.0141825499013066,0,
00:00:05.288,0.00943717919290066,0,
00:00:05.292,-0.0213338509202003,0,
00:00:05.296,-0.00620912574231625,0,
00:00:05.3,-0.00112238060683012,0,
00:00:05.304,0.00780788669362664,0,
00:00:05.308,0.0118602486327291,0,
00:00:05.312,-0.000525452138390392,0,
00:00:05.316,-0.0042086923494935,0,
00:00:05.32,0.00475005153566599,0,
00:00:05.324,-0.00732498895376921,0,
00:00:05.328,-0.00414332654327154,0,
00:00:05.332,-0.00525573501363397,0,
00:00:05.336,0.000887343194335699,0,
00:00:05.34,0.000917102443054318,0,
00:00:05.344,0.0195111706852913,0,
00:00:05.348,0.00229981238953769,0,
00:00:05.352,-0.0160932820290327,0,
00:00:05.356,-0.00337358377873898,0,
00:00:05.36,-0.00294919405132532,0,
00:00:05.364,-0.000267885741777718,0,
00:00:05.368,0.00436259573325515,0,
00:00:05.372,0.0117179360240698,0,
00:00:05.376,0.0182225238531828,0,
00:00:05.38,-0.0243976358324289,0,
00:00:05.384,-0.020973589271307,0,
00:00:05.388,0.00638490822166204,0,
00:00:05.392,0.0136121911928058,0,
00:00:05.396,0.000849852513056248,0,
00:00:05.4,-0.00311760045588017,0,
00:00:05.404,0.00393441086634994,0,
00:00:05.408,0.0043705552816391,0,
00:00:05.412,-0.000844962080009282,0,
00:00:05.416,-0.0125188147649169,0,
00:00:05.42,-0.000427828141255304,0,
00:00:05.424,0.00848928466439247,0,
00:00:05.428,0.00226607942022383,0,
00:00:05.432,0.00277479877695441,0,
00:00:05.436,-0.00424573570489883,0,
00:00:05.44,-0.00692499289289117,0,
00:00:05.444,-0.000341110717272386,0,
00:00:05.448,-0.0061622578650713,0,
00:00:05.452,0.0101313441991806,0,
00:00:05.456,0.0099139641970396,0,
00:00:05.46,-0.00312873022630811,0,
00:00:05.464,-0.00762653443962336,0,
00:00:05.468,-0.00551250390708447,0,
00:00:05.472,0.00107691483572125,0,
00:00:05.476,0.015106606297195,0,
00:00:05.48,0.00489411456510425,0,
00:00:05.484,-0.0183053202927113,0,
00:00:05.488,-0.00992287509143353,0,
00:00:05.492,0.00692549487575889,0,
00:00:05.496,0.0133431227877736,0,
00:00:05.5,0.0175262317061424,0,
00:00:05.504,-0.0193131323903799,0,
00:00:05.508,-0.0187208689749241,0,
00:00:05.512,0.00295177078805864,0,
00:00:05.516,0.00442496733739972,0,
00:00:05.52,0.00397744076326489,0,
00:00:05.524,0.0109996302053332,0,
00:00:05.528,0.00582489464432001,0,
00:00:05.532,-0.0120251914486289,0,
00:00:05.536,-0.00859573110938072,0,
00:00:05.54,-0.000653555674944073,0,
00:00:05.544,0.0167714189738035,0,
00:00:05.548,-0.00902377907186747,0,
00:00:05.552,0.00521717965602875,0,
00:00:05.556,0.00522714341059327,0,
00:00:05.56,-0.0143980514258146,0,
00:00:05.564,-0.0130919879302382,0,
00:00:05.568,0.00102770689409226,0,
00:00:05.572,0.0121880816295743,0,
00:00:05.576,0.0168012194335461,0,
00:00:05.58,-0.00211045797914267,0,
00:00:05.584,-0.00925994571298361,0,
00:00:05.588,-0.00146422255784273,0,
00:00:05.592,0.00811604596674442,0,
00:00:05.596,-0.0104793729260564,0,
00:00:05.6,-0.0155824245885015,0,
00:00:05.604,0.0126069476827979,0,
00:00:05.608,0.0224217101931572,0,
00:00:05.612,-0.0130125181749463,0,
00:00:05.616,-0.0145190805196762,0,
00:00:05.62,0.00803323090076447,0,
00:00:05.624,0.00930444523692131,0,
00:00:05.628,-0.00953468400985003,0,
00:00:05.632,-0.00148505077231675,0,
00:00:05.636,-0.00416813511401415,0,
00:00:05.64,0.0124967629089952,0,
00:00:05.644,0.00223199045285583,0,
00:00:05.648,-0.00490388553589582,0,
00:00:05.652,-0.00590489245951176,0,
00:00:05.656,0.00118873058818281,0,
00:00:05.66,0.00917963031679392,0,
00:00:05.664,0.00641230493783951,0,
00:00:05.668,-0.0103674279525876,0,
00:00:05.672,-0.0156418029218912,0,
00:00:05.676,0.00124135310761631,0,
00:00:05.68,0.00578912440687418,0,
00:00:05.684,0.0028500840999186,0,
00:00:05.688,0.0106614595279098,0,
00:00:05.692,0.0147284781560302,0,
00:00:05.696,-0.0149838188663125,0,
00:00:05.7,-0.0166403520852327,0,
00:00:05.704,0.00363121461123228,0,
00:00:05.708,0.00366492755711079,0,
00:00:05.712,0.00015120227180887,0,
00:00:05.716,-0.00140786834526807,0,
00:00:05.72,0.00130285252816975,0,
00:00:05.724,0.00489745521917939,0,
00:00:05.728,0.00235930480994284,0,
00:00:05.732,-0.0092098219320178,0,
00:00:05.736,0.00951063726097345,0,
00:00:05.74,0.0106600355356932,0,
00:00:05.744,-0.0198036413639784,0,
00:00:05.748,-0.0141808837652206,0,
00:00:05.752,0.0124387042596936,0,
00:00:05.756,0.020168187096715,0,
00:00:05.76,-0.000463846634374931,0,
00:00:05.764,-0.0202683936804533,0,
00:00:05.768,-0.0119904512539506,0,
00:00:05.772,0.00975016597658396,0,
00:00:05.776,0.0158794093877077,0,
00:00:05.78,-0.00252216472290456,0,
00:00:05.784,-0.00237144925631583,0,
00:00:05.788,0.00470105977728963,0,
00:00:05.792,-0.00459758518263698,0,
00:00:05.796,-0.00506895314902067,0,
00:00:05.8,-6.59360978261248E-07,0,
00:00:05.804,-0.00526069896295667,0,
00:00:05.808,0.00662228604778647,0,
00:00:05.812,0.00523908622562885,0,
00:00:05.816,-0.00973276887089014,0,
00:00:05.82,-0.00087797618471086,0,
00:00:05.824,0.0214302577078342,0,
00:00:05.828,0.00607278430834413,0,
00:00:05.832,-0.0285116098821163,0,
00:00:05.836,-0.00911292433738709,0,
00:00:05.84,0.0129414675757289,0,
00:00:05.844,0.00773031776770949,0,
00:00:05.848,-0.00722499424591661,0,
00:00:05.852,-0.0052566328085959,0,
00:00:05.856,0.0131109403446317,0,
00:00:05.86,0.00495755765587091,0,
00:00:05.864,-0.00677521387115121,0,
00:00:05.868,-0.00790679268538952,0,
00:00:05.872,0.00258635217323899,0,
00:00:05.876,0.00767913553863764,0,
00:00:05.88,-0.00263114995323122,0,
00:00:05.884,-0.0102407792583108,0,
00:00:05.888,0.0040672030299902,0,
00:00:05.892,0.0158195290714502,0,
00:00:05.896,-0.0118135148659348,0,
00:00:05.9,-0.0176673755049706,0,
00:00:05.904,0.0119409216567874,0,
00:00:05.908,0.0311422925442457,0,
00:00:05.912,-0.0140603333711624,0,
00:00:05.916,-0.0225945394486189,0,
00:00:05.92,-0.0100465156137943,0,
00:00:05.924,0.00800864398479462,0,
00:00:05.928,0.0273841172456741,0,
00:00:05.932,0.00116949295625091,0,
00:00:05.936,-0.0176172982901335,0,
00:00:05.94,-0.00749039556831121,0,
00:00:05.944,0.0040341978892684,0,
00:00:05.948,0.012272416613996,0,
00:00:05.952,0.0058645810931921,0,
00:00:05.956,-0.0105988848954439,0,
00:00:05.96,-0.00683456053957343,0,
00:00:05.964,-0.00811260286718607,0,
00:00:05.968,0.00143519649282098,0,
00:00:05.972,0.0118537805974483,0,
00:00:05.976,0.00581135647371411,0,
00:00:05.98,0.0005661771283485,0,
00:00:05.984,0.00576970679685473,0,
00:00:05.988,-0.00907159503549337,0,
00:00:05.992,-0.00669743772596121,0,
00:00:05.996,-0.00710162939503789,0,
00:00:06,-0.0225241165608168,0,
00:00:06.004,0.0210174433887005,0,
00:00:06.008,0.0777861699461937,0,
00:00:06.012,-0.0247598066926003,0,
00:00:06.016,-0.0728592276573181,0,
00:00:06.02,-0.0144100971519947,0,
00:00:06.024,0.0231630131602287,0,
00:00:06.028,0.0264670643955469,0,
00:00:06.032,0.0181759353727102,0,
00:00:06.036,-0.00602442678064108,0,
00:00:06.04,-0.0136273549869657,0,
00:00:06.044,0.000145214915391989,0,
00:00:06.048,-0.00246884697116911,0,
00:00:06.052,-0.00273923645727336,0,
00:00:06.056,-0.00953477062284946,0,
00:00:06.06,0.010548404417932,0,
00:00:06.064,0.00413763476535678,0,
00:00:06.068,-0.0035216121468693,0,
00:00:06.072,-0.00117369054351002,0,
00:00:06.076,0.0142334243282676,0,
00:00:06.08,-0.00311963562853634,0,
00:00:06.084,-0.0206050984561443,0,
00:00:06.088,0.0018148118397221,0,
00:00:06.092,0.0186704155057669,0,
00:00:06.096,0.00258419150486588,0,
00:00:06.1,-0.0125055043026805,0,
00:00:06.104,-0.00562733504921198,0,
00:00:06.108,0.00276577589102089,0,
00:00:06.112,0.00175309146288782,0,
00:00:06.116,-0.00425926176831126,0,
00:00:06.12,0.00755783636122942,0,
00:00:06.124,0.00565155176445842,0,
00:00:06.128,-0.00175520987249911,0,
00:00:06.132,0.00492478581145406,0,
00:00:06.136,-0.00816195365041494,0,
00:00:06.14,-0.0154521726071835,0,
00:00:06.144,-0.00838354881852865,0,
00:00:06.148,0.0395402945578098,0,
00:00:06.152,0.012766920030117,0,
00:00:06.156,-0.0283643510192633,0,
00:00:06.16,-0.0163609851151705,0,
00:00:06.164,-0.0055509670637548,0,
00:00:06.168,0.00941875390708447,0,
00:00:06.172,0.0142232291400433,0,
00:00:06.176,0.0116743734106421,0,
00:00:06.18,-0.00248496723361313,0,
00:00:06.184,-0.0167033337056637,0,
00:00:06.188,-0.00161887577269226,0,
00:00:06.192,0.00735999690368772,0,
00:00:06.196,-0.000911671028006822,0,
00:00:06.2,-0.0103386072441936,0,
00:00:06.204,0.00515550235286355,0,
00:00:06.208,0.0175406076014042,0,
00:00:06.212,-0.00229232665151358,0,
00:00:06.216,-0.0129243470728397,0,
00:00:06.22,-0.00713081983849406,0,
00:00:06.224,0.00509377475827932,0,
00:00:06.228,-0.000773626379668713,0,
00:00:06.232,-0.000313426338834688,0,
00:00:06.236,0.0181620791554451,0,
00:00:06.24,-0.000859731750097126,0,
00:00:06.244,-0.0166730750352144,0,
00:00:06.248,-0.00171135179698467,0,
00:00:06.252,0.00753218354657292,0,
00:00:06.256,0.00149679917376488,0,
00:00:06.26,-0.00164702034089714,0,
00:00:06.264,-0.00208747759461403,0,
00:00:06.268,-0.00936632789671421,0,
00:00:06.272,0.00600653234869242,0,
00:00:06.276,0.00945605617016554,0,
00:00:06.28,0.00125328253488988,0,
00:00:06.284,-0.00476413499563932,0,
00:00:06.288,-0.00130769645329565,0,
00:00:06.292,0.0016797159332782,0,
00:00:06.296,-0.00427080504596233,0,
00:00:06.3,-0.00808626227080822,0,
00:00:06.304,0.0073189833201468,0,
00:00:06.308,0.0263224989175797,0,
00:00:06.312,-0.00891713704913855,0,
00:00:06.316,-0.0267422739416361,0,
00:00:06.32,-0.010420155711472,0,
00:00:06.324,0.00708675244823098,0,
00:00:06.328,0.0284886136651039,0,
00:00:06.332,0.0116110285744071,0,
00:00:06.336,-0.021768856793642,0,
00:00:06.34,-0.00933054182678461,0,
00:00:06.344,-0.00067067239433527,0,
00:00:06.348,0.003476622980088,0,
00:00:06.352,0.00184690102469176,0,
00:00:06.356,0.00223543983884156,0,
00:00:06.36,0.00191025144886225,0,
00:00:06.364,0.00285881385207176,0,
00:00:06.368,0.0100709432736039,0,
00:00:06.372,-0.012496680021286,0,
00:00:06.376,-0.0110246511176229,0,
00:00:06.38,-0.00451785372570157,0,
00:00:06.384,-5.33567181264516E-05,0,
00:00:06.388,0.00953418668359518,0,
00:00:06.392,0.0216963980346918,0,
00:00:06.396,0.000450889579951763,0,
00:00:06.4,-0.0211906619369984,0,
00:00:06.404,-0.00153148511890322,0,
00:00:06.408,0.00225066859275103,0,
00:00:06.412,-0.00505731021985412,0,
00:00:06.416,-0.00253361253999174,0,
00:00:06.42,0.00608732271939516,0,
00:00:06.424,0.0128822028636932,0,
00:00:06.428,0.00140516553074121,0,
00:00:06.432,-0.0115997707471251,0,
00:00:06.436,-0.00461627775803208,0,
00:00:06.44,-0.00114322849549353,0,
00:00:06.444,0.00935393292456865,0,
00:00:06.448,0.00880273804068565,0,
00:00:06.452,-0.0119377691298723,0,
00:00:06.456,1.58878156071296E-05,0,
00:00:06.46,0.00276588089764118,0,
00:00:06.464,-0.00486338557675481,0,
00:00:06.468,-0.0155476704239845,0,
00:00:06.472,0.00833250768482685,0,
00:00:06.476,0.0228522047400475,0,
00:00:06.48,-0.000818855885881931,0,
00:00:06.484,-0.0123656112700701,0,
00:00:06.488,-0.00288668926805258,0,
00:00:06.492,0.00283292657695711,0,
00:00:06.496,-0.00675102649256587,0,
00:00:06.5,-0.00514630228281021,0,
00:00:06.504,0.0252468027174473,0,
00:00:06.508,0.0160986762493849,0,
00:00:06.512,-0.0311909075826406,0,
00:00:06.516,-0.0212153345346451,0,
00:00:06.52,0.000427735038101673,0,
00:00:06.524,0.0238042715936899,0,
00:00:06.528,0.0147224692627788,0,
00:00:06.532,-0.00225348770618439,0,
00:00:06.536,-0.0131625765934587,0,
00:00:06.54,-0.0061237090267241,0,
00:00:06.544,-0.000306133355479687,0,
00:00:06.548,-0.00142648839391768,0,
00:00:06.552,-0.00126479764003307,0,
00:00:06.556,0.0151337841525674,0,
00:00:06.56,0.023950507864356,0,
00:00:06.564,-0.0252820365130901,0,
00:00:06.568,-0.0257696360349655,0,
00:00:06.572,0.0001458120677853,0,
00:00:06.576,0.022749550640583,0,
00:00:06.58,0.00873967353254557,0,
00:00:06.584,-0.00388380140066147,0,
00:00:06.588,-0.0083469869568944,0,
00:00:06.592,0.00220091780647635,0,
00:00:06.596,-0.00298999808728695,0,
00:00:06.6,-0.00997057184576988,0,
00:00:06.604,0.00243494939059019,0,
00:00:06.608,0.0269494242966175,0,
00:00:06.612,0.00594672188162804,0,
00:00:06.616,-0.0342356972396374,0,
00:00:06.62,-0.0021933070383966,0,
00:00:06.624,0.00777179468423128,0,
00:00:06.628,0.00484353816136718,0,
00:00:06.632,0.000475327979074791,0,
00:00:06.636,0.000498459965456277,0,
00:00:06.64,0.00291197351180017,0,
00:00:06.644,-0.00559796951711178,0,
00:00:06.648,0.0104824798181653,0,
00:00:06.652,0.00493440730497241,0,
00:00:06.656,-0.0181139539927244,0,
00:00:06.66,-0.0040411171503365,0,
00:00:06.664,-0.00149616517592221,0,
00:00:06.668,0.00200996547937393,0,
00:00:06.672,0.0143992658704519,0,
00:00:06.676,0.00232135690748692,0,
00:00:06.68,-0.00961671397089958,0,
00:00:06.684,-0.00674504227936268,0,
00:00:06.688,0.0204218737781048,0,
00:00:06.692,0.00906076747924089,0,
00:00:06.696,-0.0251397211104631,0,
00:00:06.7,-0.0181045103818178,0,
00:00:06.704,0.00323823327198625,0,
00:00:06.708,0.0191143564879894,0,
00:00:06.712,0.0161070041358471,0,
00:00:06.716,-0.00974798295646906,0,
00:00:06.72,-0.010194587521255,0,
00:00:06.724,0.00300536793656647,0,
00:00:06.728,0.00480533298105001,0,
00:00:06.732,-0.00653661647811532,0,
00:00:06.736,-0.00609133578836918,0,
00:00:06.74,0.00292572076432407,0,
00:00:06.744,0.00523734791204333,0,
00:00:06.748,0.0118131479248405,0,
00:00:06.752,0.00103699369356036,0,
00:00:06.756,-0.0179962459951639,0,
00:00:06.76,-0.00323477853089571,0,
00:00:06.764,0.000865586567670107,0,
00:00:06.768,-0.000259363470831886,0,
00:00:06.772,0.0060163545422256,0,
00:00:06.776,0.00975323002785444,0,
00:00:06.78,0.00027759579825215,0,
00:00:06.784,-0.00850158557295799,0,
00:00:06.788,-0.000707897474057972,0,
00:00:06.792,0.00691359583288431,0,
00:00:06.796,-0.00160186446737498,0,
00:00:06.8,-0.0196005664765835,0,
00:00:06.804,0.00566731812432408,0,
00:00:06.808,0.0185600612312555,0,
00:00:06.812,-0.00622700108215213,0,
00:00:06.816,-0.0150143038481474,0,
00:00:06.82,0.0173230171203613,0,
00:00:06.824,0.0184572171419859,0,
00:00:06.828,-0.0195558927953243,0,
00:00:06.832,-0.0211570765823126,0,
00:00:06.836,0.00276449252851307,0,
00:00:06.84,0.0123673425987363,0,
00:00:06.844,0.00626258924603462,0,
00:00:06.848,-0.000849149248097092,0,
00:00:06.852,-0.00188528734724969,0,
00:00:06.856,-0.00110208184923977,0,
00:00:06.86,0.00387728586792946,0,
00:00:06.864,0.00445714453235269,0,
00:00:06.868,-0.00900409463793039,0,
00:00:06.872,-0.0110195018351078,0,
00:00:06.876,0.00529132457450032,0,
00:00:06.88,0.00689596170559525,0,
00:00:06.884,-0.000980487558990717,0,
00:00:06.888,-0.00289076962508261,0,
00:00:06.892,0.00473488168790936,0,
00:00:06.896,0.000893168209586293,0,
00:00:06.9,0.00550664169713855,0,
00:00:06.904,-0.000810287543572485,0,
00:00:06.908,-0.00757492519915104,0,
00:00:06.912,-0.00983306020498276,0,
00:00:06.916,-0.00547394203022122,0,
00:00:06.92,0.00938048865646124,0,
00:00:06.924,0.0226004682481289,0,
00:00:06.928,-0.00510707218199968,0,
00:00:06.932,-0.0128893386572599,0,
00:00:06.936,-0.0130027225241065,0,
00:00:06.94,0.00466312328353524,0,
00:00:06.944,0.024087518453598,0,
00:00:06.948,0.00321478443220258,0,
00:00:06.952,-0.0220391787588596,0,
00:00:06.956,-0.00584775162860751,0,
00:00:06.96,0.00512287393212318,0,
00:00:06.964,0.00152053381316364,0,
00:00:06.968,-0.00799396261572838,0,
00:00:06.972,0.0188155677169561,0,
00:00:06.976,0.0247191060334444,0,
00:00:06.98,-0.0257630329579115,0,
00:00:06.984,-0.0264794025570154,0,
00:00:06.988,-0.000305619032587856,0,
00:00:06.992,0.0226545203477144,0,
00:00:06.996,0.0130360033363104,0,
00:00:07,-0.0138499736785889,0,
00:00:07.004,-0.00762855261564255,0,
00:00:07.008,0.00464444234967232,0,
00:00:07.012,0.00685888808220625,0,
00:00:07.016,0.00342631409876049,0,
00:00:07.02,-0.0113545274361968,0,
00:00:07.024,-0.00198042858392,0,
00:00:07.028,0.00202736887149513,0,
00:00:07.032,0.00469230115413666,0,
00:00:07.036,-0.000404027232434601,0,
00:00:07.04,-0.00139540189411491,0,
00:00:07.044,-0.0049370639026165,0,
00:00:07.048,-0.00847703870385885,0,
00:00:07.052,0.0218267738819122,0,
00:00:07.056,0.0213552787899971,0,
00:00:07.06,-0.0169693157076836,0,
00:00:07.064,-0.0309879463165998,0,
00:00:07.068,-0.0100835310295224,0,
00:00:07.072,0.0182527732104063,0,
00:00:07.076,0.0173426754772663,0,
00:00:07.08,0.00432504853233695,0,
00:00:07.084,-0.00954835675656796,0,
00:00:07.088,0.000247686053626239,0,
00:00:07.092,0.00881488248705864,0,
00:00:07.096,-0.0111981658264995,0,
00:00:07.1,-0.00866133905947208,0,
00:00:07.104,-0.000631620001513511,0,
00:00:07.108,0.0130390003323555,0,
00:00:07.112,-0.00649098306894302,0,
00:00:07.116,-0.00552811799570918,0,
00:00:07.12,0.023371322080493,0,
00:00:07.124,0.00144079735036939,0,
00:00:07.128,-0.0207307487726212,0,
00:00:07.132,-0.0136491199955344,0,
00:00:07.136,0.00827259477227926,0,
00:00:07.14,0.0194466635584831,0,
00:00:07.144,-0.00410947622731328,0,
00:00:07.148,-0.00897914450615644,0,
00:00:07.152,0.00122666801325977,0,
00:00:07.156,0.00289529166184366,0,
00:00:07.16,-0.0131919626146555,0,
00:00:07.164,0.0237575974315405,0,
00:00:07.168,0.0107163973152637,0,
00:00:07.172,-0.022129263728857,0,
00:00:07.176,-0.0177556201815605,0,
00:00:07.18,-0.000735540350433439,0,
00:00:07.184,0.0311514269560575,0,
00:00:07.188,0.000216145388549194,0,
00:00:07.192,-0.0157291274517775,0,
00:00:07.196,-0.00399502040818334,0,
00:00:07.2,0.00647448282688856,0,
00:00:07.204,-0.00209419149905443,0,
00:00:07.208,-0.0027385235298425,0,
00:00:07.212,0.00591521617025137,0,
00:00:07.216,0.000138869494548999,0,
00:00:07.22,-0.0104012880474329,0,
00:00:07.224,0.0353217013180256,0,
00:00:07.228,0.0015809367178008,0,
00:00:07.232,-0.0429881550371647,0,
00:00:07.236,-0.0142187671735883,0,
00:00:07.24,0.0154984211549163,0,
00:00:07.244,0.0240909792482853,0,
00:00:07.248,0.0070353290066123,0,
00:00:07.252,-0.0138845862820745,0,
00:00:07.256,-0.00798354391008615,0,
00:00:07.26,-0.00297907111234963,0,
00:00:07.264,0.00926606915891171,0,
00:00:07.268,0.00551860826089978,0,
00:00:07.272,-0.000814149854704738,0,
00:00:07.276,-0.0124924853444099,0,
00:00:07.28,0.00391712225973606,0,
00:00:07.284,0.00475921807810664,0,
00:00:07.288,-0.00505737494677305,0,
00:00:07.292,-0.00196034903638065,0,
00:00:07.296,-0.00394765473902225,0,
00:00:07.3,0.0324559956789017,0,
00:00:07.304,0.000233242506510578,0,
00:00:07.308,-0.0309931859374046,0,
00:00:07.312,-0.0151675892993808,0,
00:00:07.316,0.00116446358151734,0,
00:00:07.32,0.0122670475393534,0,
00:00:07.324,0.0193481035530567,0,
00:00:07.328,0.00749300746247172,0,
00:00:07.332,-0.0149930901825428,0,
00:00:07.336,-0.00400374876335263,0,
00:00:07.34,0.012348959222436,0,
00:00:07.344,-0.00910920556634665,0,
00:00:07.348,-0.0135008618235588,0,
00:00:07.352,0.00346320355311036,0,
00:00:07.356,0.00452415738254786,0,
00:00:07.36,0.0059793540276587,0,
00:00:07.364,-0.00612735748291016,0,
00:00:07.368,0.00858082808554173,0,
00:00:07.372,-0.00234331353567541,0,
00:00:07.376,-0.00335215404629707,0,
00:00:07.38,-0.0012571559054777,0,
00:00:07.384,0.00686270603910089,0,
00:00:07.388,0.00367975467815995,0,
00:00:07.392,-0.0264020785689354,0,
00:00:07.396,0.000722050957847387,0,
00:00:07.4,0.0479299612343311,0,
00:00:07.404,-0.0114757223054767,0,
00:00:07.408,-0.028862290084362,0,
00:00:07.412,-0.0109572093933821,0,
00:00:07.416,0.00296826683916152,0,
00:00:07.42,0.0134922545403242,0,
00:00:07.424,0.017397802323103,0,
00:00:07.428,2.26162592298351E-05,0,
00:00:07.432,-0.013527562841773,0,
00:00:07.436,-0.00761225866153836,0,
00:00:07.44,0.0215791612863541,0,
00:00:07.444,-0.0021834084764123,0,
00:00:07.448,-0.0234821327030659,0,
00:00:07.452,-0.00958628766238689,0,
00:00:07.456,0.0107594905421138,0,
00:00:07.46,0.0153823858126998,0,
00:00:07.464,0.011435535736382,0,
00:00:07.468,-0.00352869904600084,0,
00:00:07.472,-0.0155952190980315,0,
00:00:07.476,-0.00191776466090232,0,
00:00:07.48,-0.00645726220682263,0,
00:00:07.484,-0.00067477481206879,0,
00:00:07.488,0.0380488820374012,0,
00:00:07.492,-0.0107249338179827,0,
00:00:07.496,-0.0356784090399742,0,
00:00:07.5,-0.00478859897702932,0,
00:00:07.504,0.038349561393261,0,
00:00:07.508,0.00690039666369557,0,
00:00:07.512,-0.0223330929875374,0,
00:00:07.516,-0.0112130101770163,0,
00:00:07.52,0.00605866825208068,0,
00:00:07.524,0.0105279926210642,0,
00:00:07.528,0.00249826814979315,0,
00:00:07.532,-0.00598000455647707,0,
00:00:07.536,-0.00110785360448062,0,
00:00:07.54,0.00100985751487315,0,
00:00:07.544,-0.000898953061550856,0,
00:00:07.548,0.00867395009845495,0,
00:00:07.552,0.0037531522102654,0,
00:00:07.556,-0.0111997565254569,0,
00:00:07.56,-0.00426678638905287,0,
00:00:07.564,-0.00915166828781366,0,
00:00:07.568,-0.00353884161449969,0,
00:00:07.572,0.0222732145339251,0,
00:00:07.576,-0.0105027072131634,0,
00:00:07.58,0.0293100830167532,0,
00:00:07.584,0.00386572047136724,0,
00:00:07.588,-0.0364572666585445,0,
00:00:07.592,-0.0159667246043682,0,
00:00:07.596,0.00869607646018267,0,
00:00:07.6,0.0161098390817642,0,
00:00:07.604,0.00513915996998549,0,
00:00:07.608,0.0022175048943609,0,
00:00:07.612,-0.00176614720840007,0,
00:00:07.616,-0.00995376706123352,0,
00:00:07.62,0.00260397442616522,0,
00:00:07.624,0.0116138681769371,0,
00:00:07.628,-0.00516807194799185,0,
00:00:07.632,-0.0140978777781129,0,
00:00:07.636,-0.00853949878364801,0,
00:00:07.64,0.015354654751718,0,
00:00:07.644,0.0222996585071087,0,
00:00:07.648,-0.0102602830156684,0,
00:00:07.652,-0.0219645835459232,0,
00:00:07.656,-0.00236554467119277,0,
00:00:07.66,0.0184166543185711,0,
00:00:07.664,0.00964028295129538,0,
00:00:07.668,-0.0152067895978689,0,
00:00:07.672,-0.00304672424681485,0,
00:00:07.676,0.00612678006291389,0,
00:00:07.68,-0.00330948201008141,0,
00:00:07.684,-0.0101416613906622,0,
00:00:07.688,-0.00325639918446541,0,
00:00:07.692,0.0397488251328468,0,
00:00:07.696,0.0197218228131533,0,
00:00:07.7,-0.0464778952300549,0,
00:00:07.704,-0.031497847288847,0,
00:00:07.708,0.0105214845389128,0,
00:00:07.712,0.0177677124738693,0,
00:00:07.716,0.00887093786150217,0,
00:00:07.72,-9.72635825746693E-05,0,
00:00:07.724,0.0167368929833174,0,
00:00:07.728,-0.00245138141326606,0,
00:00:07.732,-0.0163336023688316,0,
00:00:07.736,-0.00753120891749859,0,
00:00:07.74,-0.00607211934402585,0,
00:00:07.744,-0.0027213713619858,0,
00:00:07.748,0.00394297996535897,0,
00:00:07.752,0.0176327303051949,0,
00:00:07.756,0.0129964845255017,0,
00:00:07.76,-0.00656183995306492,0,
00:00:07.764,-0.0199490804225206,0,
00:00:07.768,-0.00640055583789945,0,
00:00:07.772,0.0126338740810752,0,
00:00:07.776,0.00839226599782705,0,
00:00:07.78,-0.0084593566134572,0,
00:00:07.784,-0.00545054068788886,0,
00:00:07.788,0.00724248960614204,0,
00:00:07.792,0.00677126925438643,0,
00:00:07.796,-0.00884700752794743,0,
00:00:07.8,-0.00967838894575834,0,
00:00:07.804,0.00911666546016932,0,
00:00:07.808,0.0141556924208999,0,
00:00:07.812,0.00579772749915719,0,
00:00:07.816,-0.018242696300149,0,
00:00:07.82,-0.0174131281673908,0,
00:00:07.824,0.000602513435296714,0,
00:00:07.828,-0.00664118677377701,0,
00:00:07.832,0.0280342865735292,0,
00:00:07.836,0.0516635440289974,0,
00:00:07.84,-0.0361884534358978,0,
00:00:07.844,-0.0406069867312908,0,
00:00:07.848,-0.00885663833469152,0,
00:00:07.852,0.00699862651526928,0,
00:00:07.856,0.0243985708802938,0,
00:00:07.86,0.0188990719616413,0,
00:00:07.864,-0.00788504350930452,0,
00:00:07.868,-0.0141088692471385,0,
00:00:07.872,-0.00487918825820088,0,
00:00:07.876,-0.00512188719585538,0,
00:00:07.88,0.0134030943736434,0,
00:00:07.884,0.0245495457202196,0,
00:00:07.888,-0.0172033552080393,0,
00:00:07.892,-0.0257013216614723,0,
00:00:07.896,-0.00559372594580054,0,
00:00:07.9,0.00673019187524915,0,
00:00:07.904,0.0166230443865061,0,
00:00:07.908,0.0144352614879608,0,
00:00:07.912,-0.00542330835014582,0,
00:00:07.916,-0.0110449800267816,0,
00:00:07.92,-0.00145433621946722,0,
00:00:07.924,0.00291605177335441,0,
00:00:07.928,0.00072391249705106,0,
00:00:07.932,-0.00357140437699854,0,
00:00:07.936,-0.00410001492127776,0,
00:00:07.94,0.00458908174186945,0,
00:00:07.944,-0.000468593643745407,0,
00:00:07.948,0.00445653917267919,0,
00:00:07.952,-0.004559644497931,0,
00:00:07.956,0.00223891693167388,0,
00:00:07.96,0.0082296347245574,0,
00:00:07.964,-0.0184056926518679,0,
00:00:07.968,-0.00691573740914464,0,
00:00:07.972,0.0445595756173134,0,
00:00:07.976,-0.00903377588838339,0,
00:00:07.98,-0.0267575494945049,0,
00:00:07.984,-0.00447166571393609,0,
00:00:07.988,-0.00187500927131623,0,
00:00:07.992,0.00333050568588078,0,
00:00:07.996,0.00407285988330841,0,
00:00:08,0.02208829857409,0,
00:00:08.004,0.00946035049855709,0,
00:00:08.008,-0.0185551755130291,0,
00:00:08.012,-0.0137764541432261,0,
00:00:08.016,-0.0103092100471258,0,
00:00:08.02,0.00302234455011785,0,
00:00:08.024,0.0251455418765545,0,
00:00:08.028,0.00647676689550281,0,
00:00:08.032,-0.0127171566709876,0,
00:00:08.036,-0.0124743431806564,0,
00:00:08.04,0.00377795402891934,0,
00:00:08.044,0.00330429268069565,0,
00:00:08.048,2.76125974778552E-05,0,
00:00:08.052,0.00479675550013781,0,
00:00:08.056,0.0035596014931798,0,
00:00:08.06,-0.00403241254389286,0,
00:00:08.064,-0.0131422402337193,0,
00:00:08.068,-0.00280966539867222,0,
00:00:08.072,0.0169018153101206,0,
00:00:08.076,0.0134381325915456,0,
00:00:08.08,-0.012373854406178,0,
00:00:08.084,-0.0157442670315504,0,
00:00:08.088,0.00505573954433203,0,
00:00:08.092,0.00714457780122757,0,
00:00:08.096,-0.00121465942356735,0,
00:00:08.1,0.00283682579174638,0,
00:00:08.104,-0.00155791721772403,0,
00:00:08.108,7.16434878995642E-05,0,
00:00:08.112,-0.00498320301994681,0,
00:00:08.116,-0.00362893240526319,0,
00:00:08.12,0.00823304988443851,0,
00:00:08.124,0.00510930269956589,0,
00:00:08.128,-0.00272931344807148,0,
00:00:08.132,-0.0080812256783247,0,
00:00:08.136,0.00384153774939477,0,
00:00:08.14,0.00956565327942371,0,
00:00:08.144,-0.0142025304958224,0,
00:00:08.148,0.000951017194893211,0,
00:00:08.152,-0.00227926811203361,0,
00:00:08.156,0.00819248706102371,0,
00:00:08.16,0.00906322803348303,0,
00:00:08.164,-0.0108870370313525,0,
00:00:08.168,-0.0073738512583077,0,
00:00:08.172,0.00888388976454735,0,
00:00:08.176,0.00338484393432736,0,
00:00:08.18,-0.00338580808602273,0,
00:00:08.184,-0.0073233051225543,0,
00:00:08.188,0.00309241213835776,0,
00:00:08.192,0.00842441059648991,0,
00:00:08.196,-0.0041021415963769,0,
00:00:08.2,-0.00185278116259724,0,
00:00:08.204,-0.000434476125519723,0,
00:00:08.208,0.00235499488189816,0,
00:00:08.212,-0.00151268555782735,0,
00:00:08.216,-0.00545617006719112,0,
00:00:08.22,0.00596418604254723,0,
00:00:08.224,0.00416617235168815,0,
00:00:08.228,-0.000293380842776969,0,
00:00:08.232,-0.00911640655249357,0,
00:00:08.236,0.000946994579862803,0,
00:00:08.24,0.00757322972640395,0,
00:00:08.244,-0.00162872427608818,0,
00:00:08.248,-0.00496421614661813,0,
00:00:08.252,-0.0013680171687156,0,
00:00:08.256,0.00822071637958288,0,
00:00:08.26,0.00115867843851447,0,
00:00:08.264,-0.00695672677829862,0,
00:00:08.268,-0.00354446307756007,0,
00:00:08.272,0.00537642650306225,0,
00:00:08.276,0.00364226987585425,0,
00:00:08.28,-0.00429868139326572,0,
00:00:08.284,-0.00253709009848535,0,
00:00:08.288,0.00486217439174652,0,
00:00:08.292,0.00248623266816139,0,
00:00:08.296,-0.00528136407956481,0,
00:00:08.3,-0.00503164296969771,0,
00:00:08.304,0.00487698288634419,0,
00:00:08.308,0.0085701160132885,0,
00:00:08.312,-0.0050477790646255,0,
00:00:08.316,-0.00503940740600228,0,
00:00:08.32,0.000886068737599999,0,
00:00:08.324,0.00601842394098639,0,
00:00:08.328,-0.0008852977771312,0,
00:00:08.332,-0.00946541968733072,0,
00:00:08.336,0.00136444857344031,0,
00:00:08.34,0.00628832215443254,0,
00:00:08.344,0.00307839899323881,0,
00:00:08.348,-0.00503773242235184,0,
00:00:08.352,-0.00294533441774547,0,
00:00:08.356,0.00482582813128829,0,
00:00:08.36,0.000583887449465692,0,
00:00:08.364,-0.00103016453795135,0,
00:00:08.368,-0.00317337480373681,0,
00:00:08.372,0.00144574570003897,0,
00:00:08.376,0.00377164641395211,0,
00:00:08.38,0.000639965001028031,0,
00:00:08.384,-0.00823814235627651,0,
00:00:08.388,0.00131330254953355,0,
00:00:08.392,0.0054124565795064,0,
00:00:08.396,6.21240105829202E-05,0,
00:00:08.4,-0.0035773862618953,0,
00:00:08.404,0.000771226768847555,0,
00:00:08.408,0.00542866857722402,0,
00:00:08.412,-0.00556232733651996,0,
00:00:08.416,-0.00371153745800257,0,
00:00:08.42,0.00471219280734658,0,
00:00:08.424,0.00311813084408641,0,
00:00:08.428,-0.00238751037977636,0,
00:00:08.432,-0.00230618729256094,0,
00:00:08.436,-0.00265901442617178,0,
00:00:08.44,0.0048252297565341,0,
00:00:08.444,0.000836567196529359,0,
00:00:08.448,-0.000647138222120702,0,
00:00:08.452,-0.00289233843795955,0,
00:00:08.456,0.00566531252115965,0,
00:00:08.46,-0.000290880969259888,0,
00:00:08.464,-0.00905643682926893,0,
00:00:08.468,-0.000747107900679111,0,
00:00:08.472,0.00794869568198919,0,
00:00:08.476,0.0023071460891515,0,
00:00:08.48,-0.00100273732095957,0,
00:00:08.484,-0.00413707317784429,0,
00:00:08.488,0.000358320481609553,0,
00:00:08.492,0.00518941646441817,0,
00:00:08.496,-0.0055896257981658,0,
00:00:08.5,-0.00357617810368538,0,
00:00:08.504,0.00283113121986389,0,
00:00:08.508,0.00732893636450171,0,
00:00:08.512,-0.00471855979412794,0,
00:00:08.516,-0.00387146114371717,0,
00:00:08.52,0.00197038287296891,0,
00:00:08.524,0.00650945445522666,0,
00:00:08.528,-0.00308183138258755,0,
00:00:08.532,-0.00794720649719238,0,
00:00:08.536,0.00253397226333618,0,
00:00:08.54,0.0061802095733583,0,
00:00:08.544,0.000104302038380411,0,
00:00:08.548,-0.00191245519090444,0,
00:00:08.552,-0.00375915761105716,0,
00:00:08.556,0.00339300883933902,0,
00:00:08.56,0.00198476924560964,0,
00:00:08.564,-0.00487308576703072,0,
00:00:08.568,-0.00218457053415477,0,
00:00:08.572,0.00353070627897978,0,
00:00:08.576,0.00718153873458505,0,
00:00:08.58,-0.00531446002423763,0,
00:00:08.584,-0.00653227837756276,0,
00:00:08.588,0.00571316853165627,0,
00:00:08.592,0.00617528706789017,0,
00:00:08.596,-0.00643586972728372,0,
00:00:08.6,-0.00469591282308102,0,
00:00:08.604,0.00216232682578266,0,
00:00:08.608,0.0072293165139854,0,
00:00:08.612,-0.00237973663024604,0,
00:00:08.616,-0.00757612148299813,0,
00:00:08.62,0.00253896554931998,0,
00:00:08.624,0.00803731475025415,0,
00:00:08.628,-0.00213025021366775,0,
00:00:08.632,-0.00787926930934191,0,
00:00:08.636,0.00204111309722066,0,
00:00:08.64,0.00558887934312224,0,
00:00:08.644,0.00180439720861614,0,
00:00:08.648,-0.0060385842807591,0,
00:00:08.652,-0.00328541127964854,0,
00:00:08.656,0.00506784347817302,0,
00:00:08.66,0.00524219498038292,0,
00:00:08.664,-0.0086743887513876,0,
00:00:08.668,-0.00019208547018934,0,
00:00:08.672,0.00241102464497089,0,
00:00:08.676,0.00611814623698592,0,
00:00:08.68,-0.0054467162117362,0,
00:00:08.684,-0.00390732521191239,0,
00:00:08.688,0.00442175660282373,0,
00:00:08.692,0.0028834689874202,0,
00:00:08.696,-0.00250168470665812,0,
00:00:08.7,-0.00438511231914163,0,
00:00:08.704,0.00145056680776179,0,
00:00:08.708,0.00455909594893456,0,
00:00:08.712,-0.00266180816106498,0,
00:00:08.716,-0.00175799604039639,0,
00:00:08.72,0.00467761745676398,0,
00:00:08.724,0.00183329067658633,0,
00:00:08.728,-0.0038091039750725,0,
00:00:08.732,-0.00521184876561165,0,
00:00:08.736,-0.000766104087233543,0,
00:00:08.74,0.00895958114415407,0,
00:00:08.744,-0.0004188526654616,0,
00:00:08.748,-0.00481805531308055,0,
00:00:08.752,-0.00406240811571479,0,
00:00:08.756,0.00942377932369709,0,
00:00:08.76,0.00231322273612022,0,
00:00:08.764,-0.00893499422818422,0,
00:00:08.768,-0.000123915742733516,0,
00:00:08.772,0.00431686546653509,0,
00:00:08.776,0.00177516764961183,0,
00:00:08.78,-0.00531066721305251,0,
00:00:08.784,-0.00245069712400436,0,
00:00:08.788,0.00558162992820144,0,
00:00:08.792,0.00117910816334188,0,
00:00:08.796,-0.000779978465288877,0,
00:00:08.8,-0.00323092844337225,0,
00:00:08.804,0.00123326410539448,0,
00:00:08.808,0.00563555816188455,0,
00:00:08.812,-0.00353175890631974,0,
00:00:08.816,-0.00792040210217237,0,
00:00:08.82,0.000755059882067144,0,
00:00:08.824,0.0105530815199018,0,
00:00:08.828,0.00411514611914754,0,
00:00:08.832,-0.0114490976557136,0,
00:00:08.836,-0.00419174553826451,0,
00:00:08.84,0.00602753227576613,0,
00:00:08.844,0.00433960650116205,0,
00:00:08.848,-0.006060138810426,0,
00:00:08.852,0.00146821059752256,0,
00:00:08.856,0.006391825620085,0,
00:00:08.86,-0.00322740385308862,0,
00:00:08.864,-0.00605768105015159,0,
00:00:08.868,-0.0016564525431022,0,
00:00:08.872,0.00647273194044828,0,
00:00:08.876,0.00576741714030504,0,
00:00:08.88,-0.00683317193761468,0,
00:00:08.884,-0.0068820551969111,0,
00:00:08.888,0.00629995577037334,0,
00:00:08.892,0.00494360458105803,0,
00:00:08.896,-0.00181015278212726,0,
00:00:08.9,-0.00490161683410406,0,
00:00:08.904,0.000483517651446164,0,
00:00:08.908,0.00379928993061185,0,
00:00:08.912,0.00121927168220282,0,
00:00:08.916,-0.00762771628797054,0,
00:00:08.92,0.00164507294539362,0,
00:00:08.924,0.0054174130782485,0,
00:00:08.928,-0.000137435636133887,0,
00:00:08.932,-0.00381608260795474,0,
00:00:08.936,-0.001465761102736,0,
00:00:08.94,0.00735660502687097,0,
00:00:08.944,0.000270633172476664,0,
00:00:08.948,-0.00741195306181908,0,
00:00:08.952,-0.00350460107438266,0,
00:00:08.956,0.0057154530659318,0,
00:00:08.96,0.00402406463399529,0,
00:00:08.964,-0.0061256755143404,0,
00:00:08.968,0.00158045941498131,0,
00:00:08.972,0.00446088192984462,0,
00:00:08.976,0.000903915381059051,0,
00:00:08.98,-0.00639694556593895,0,
00:00:08.984,-0.00318291317671537,0,
00:00:08.988,0.00330600701272488,0,
00:00:08.992,0.00750999851152301,0,
00:00:08.996,-0.00480827782303095,0,
00:00:09,-0.00614472059533,0,
00:00:09.004,0.00378556945361197,0,
00:00:09.008,0.0080931494012475,0,
00:00:09.012,-0.00287207891233265,0,
00:00:09.016,-0.00871475785970688,0,
00:00:09.02,0.0015755258500576,0,
00:00:09.024,0.00766195449978113,0,
00:00:09.028,-0.00195076910313219,0,
00:00:09.032,-0.00742418505251408,0,
00:00:09.036,0.00247590849176049,0,
00:00:09.04,0.00583120621740818,0,
00:00:09.044,0.00183241965714842,0,
00:00:09.048,-0.00822300184518099,0,
00:00:09.052,0.000623899686615914,0,
00:00:09.056,0.00671000173315406,0,
00:00:09.06,-0.00238277530297637,0,
00:00:09.064,-0.00528937624767423,0,
00:00:09.068,0.000797627842985094,0,
00:00:09.072,0.00447623850777745,0,
00:00:09.076,0.00179941114038229,0,
00:00:09.08,-0.00531354313716292,0,
00:00:09.084,-0.00249788933433592,0,
00:00:09.088,0.00341246137395501,0,
00:00:09.092,0.00719616934657097,0,
00:00:09.096,-0.0052538625895977,0,
00:00:09.1,-0.00441057840362191,0,
00:00:09.104,0.00167153822258115,0,
00:00:09.108,0.00648888247087598,0,
00:00:09.112,-0.0050006820820272,0,
00:00:09.116,-0.00369959720410407,0,
00:00:09.12,0.00233744108118117,0,
00:00:09.124,0.00475889351218939,0,
00:00:09.128,-0.000944751605857164,0,
00:00:09.132,-0.00423245364800096,0,
00:00:09.136,0.000637605844531208,0,
00:00:09.14,0.00358391576446593,0,
00:00:09.144,0.000903926265891641,0,
00:00:09.148,-0.00784454680979252,0,
00:00:09.152,0.00159291026648134,0,
00:00:09.156,0.00549153937026858,0,
00:00:09.16,0.00205812556669116,0,
00:00:09.164,-0.00777061283588409,0,
00:00:09.168,-0.00109040655661374,0,
00:00:09.172,0.00881389155983925,0,
00:00:09.176,0.00125689245760441,0,
00:00:09.18,-0.00726128555834293,0,
00:00:09.184,-0.0039216410368681,0,
00:00:09.188,0.00308770593255758,0,
00:00:09.192,0.00562485540285707,0,
00:00:09.196,-0.000428805011324584,0,
00:00:09.2,-0.00415423139929771,0,
00:00:09.204,0.000426340906415135,0,
00:00:09.208,0.00537253962829709,0,
00:00:09.212,-0.00542879663407803,0,
00:00:09.216,-0.00352852907963097,0,
00:00:09.22,0.00276684807613492,0,
00:00:09.224,0.00721122557297349,0,
00:00:09.228,-0.00274939811788499,0,
00:00:09.232,-0.00798073410987854,0,
00:00:09.236,0.000221457492443733,0,
00:00:09.24,0.012051616795361,0,
00:00:09.244,-0.00236160890199244,0,
00:00:09.248,-0.00920357834547758,0,
00:00:09.252,0.00112485943827778,0,
00:00:09.256,0.00544149335473776,0,
00:00:09.26,0.00218430813401937,0,
00:00:09.264,-0.00553145073354244,0,
00:00:09.268,-0.00294098374433815,0,
00:00:09.272,0.00515600154176354,0,
00:00:09.276,0.00305940979160368,0,
00:00:09.28,-0.0027263481169939,0,
00:00:09.284,-0.00472210301086307,0,
00:00:09.288,0.00121503591071814,0,
00:00:09.292,0.00657412642613053,0,
00:00:09.296,-0.00456186290830374,0,
00:00:09.3,-0.0053496677428484,0,
00:00:09.304,0.0065791648812592,0,
00:00:09.308,0.00643992098048329,0,
00:00:09.312,-0.00458677532151341,0,
00:00:09.316,-0.00917689222842455,0,
00:00:09.32,0.00212557916529477,0,
00:00:09.324,0.00851588603109121,0,
00:00:09.328,-0.00135046092327684,0,
00:00:09.332,-0.00727603770792484,0,
00:00:09.336,0.00226945290341973,0,
00:00:09.34,0.00756848650053144,0,
00:00:09.344,-0.00249494984745979,0,
00:00:09.348,-0.00801322888582945,0,
00:00:09.352,0.00210706843063235,0,
00:00:09.356,0.00574708729982376,0,
00:00:09.36,0.00195020216051489,0,
00:00:09.364,-0.0038862768560648,0,
00:00:09.368,-0.005257414188236,0,
00:00:09.372,0.00338490447029471,0,
00:00:09.376,0.00294016930274665,0,
00:00:09.38,-0.00381350447423756,0,
00:00:09.384,-0.00365860108286142,0,
00:00:09.388,0.00761151826009154,0,
00:00:09.392,0.00442829309031367,0,
00:00:09.396,-0.0052325832657516,0,
00:00:09.4,-0.0041339211165905,0,
00:00:09.404,0.00155619776342064,0,
00:00:09.408,0.00404842151328921,0,
00:00:09.412,-0.00127049186266959,0,
00:00:09.416,-0.00414524506777525,0,
00:00:09.42,0.000963160186074674,0,
00:00:09.424,0.00392884341999888,0,
00:00:09.428,0.00112200202420354,0,
00:00:09.432,-0.00571410078555346,0,
00:00:09.436,-0.0025208480656147,0,
00:00:09.44,0.00779678300023079,0,
00:00:09.444,-0.000611173047218472,0,
00:00:09.448,-0.00437722401693463,0,
00:00:09.452,-0.00140817172359675,0,
00:00:09.456,0.00782408472150564,0,
00:00:09.46,-0.00133030803408474,0,
00:00:09.464,-0.00520601915195584,0,
00:00:09.468,-0.00190653488971293,0,
00:00:09.472,0.00568764843046665,0,
00:00:09.476,0.00296063744463027,0,
00:00:09.48,-0.00521709164604545,0,
00:00:09.484,-0.00313510722480714,0,
00:00:09.488,0.004754395224154,0,
00:00:09.492,0.00481381546705961,0,
00:00:09.496,-0.00688936561346054,0,
00:00:09.5,-0.00639061629772186,0,
00:00:09.504,0.00689024804159999,0,
00:00:09.508,0.00532923499122262,0,
00:00:09.512,-0.00171550072263926,0,
00:00:09.516,-0.00709660537540913,0,
00:00:09.52,0.00226432806812227,0,
00:00:09.524,0.00528573105111718,0,
00:00:09.528,-0.000745691650081426,0,
00:00:09.532,-0.00440490851178765,0,
00:00:09.536,-0.00173620926216245,0,
00:00:09.54,0.00742852780967951,0,
00:00:09.544,0.000535441562533379,0,
00:00:09.548,-0.00921183917671442,0,
00:00:09.552,-0.00135997240431607,0,
00:00:09.556,0.00946967210620642,0,
00:00:09.56,0.00424528727307916,0,
00:00:09.564,-0.0106719369068742,0,
00:00:09.568,-0.00340870022773743,0,
00:00:09.572,0.00644464697688818,0,
00:00:09.576,0.00434276554733515,0,
00:00:09.58,-0.00215999549254775,0,
00:00:09.584,-0.00693155778571963,0,
00:00:09.588,0.00478367833420634,0,
00:00:09.592,0.00369714247062802,0,
00:00:09.596,-0.00222484162077308,0,
00:00:09.6,-0.00671100476756692,0,
00:00:09.604,0.00299266679212451,0,
00:00:09.608,0.00588384969159961,0,
00:00:09.612,-0.000493172905407846,0,
00:00:09.616,-0.00447015138342977,0,
00:00:09.62,0.000112926070869435,0,
00:00:09.624,0.00522793084383011,0,
00:00:09.628,-0.00538648199290037,0,
00:00:09.632,-0.00337914191186428,0,
00:00:09.636,0.0029230413492769,0,
00:00:09.64,0.00523240212351084,0,
00:00:09.644,0.00132395012769848,0,
00:00:09.648,-0.00626869825646281,0,
00:00:09.652,-0.00326695037074387,0,
00:00:09.656,0.00520049966871738,0,
00:00:09.66,0.00328736123628914,0,
00:00:09.664,-0.00457511795684695,0,
00:00:09.668,-0.00262387096881866,0,
00:00:09.672,0.00493902107700706,0,
00:00:09.676,0.00470969686284661,0,
00:00:09.68,-0.00920298602432013,0,
00:00:09.684,-0.00255780317820609,0,
00:00:09.688,0.00644209980964661,0,
00:00:09.692,0.00385858956724405,0,
00:00:09.696,-0.00267474399879575,0,
00:00:09.7,-0.00513247773051262,0,
00:00:09.704,0.000735338602680713,0,
00:00:09.708,0.00420669978484511,0,
00:00:09.712,-0.000552557525224984,0,
00:00:09.716,-0.00555270910263062,0,
00:00:09.72,0.00529289152473211,0,
00:00:09.724,0.00555208884179592,0,
00:00:09.728,-0.00679896166548133,0,
00:00:09.732,-0.00682548293843865,0,
00:00:09.736,0.00426393048837781,0,
00:00:09.74,0.00902706850320101,0,
00:00:09.744,-0.00211060279980302,0,
00:00:09.748,-0.00633532088249922,0,
00:00:09.752,-0.000512518687173724,0,
00:00:09.756,0.00362679199315608,0,
00:00:09.76,0.00161818938795477,0,
00:00:09.764,-0.00500763859599829,0,
00:00:09.768,-0.00410540448501706,0,
00:00:09.772,0.00990518555045128,0,
00:00:09.776,0.00296194734983146,0,
00:00:09.78,-0.00642569549381733,0,
00:00:09.784,-0.00617525866255164,0,
00:00:09.788,0.00850172992795706,0,
00:00:09.792,0.00468863220885396,0,
00:00:09.796,-0.00796404387801886,0,
00:00:09.8,-0.00710480846464634,0,
00:00:09.804,0.00681522907689214,0,
00:00:09.808,0.00566656701266766,0,
00:00:09.812,-0.00130364007782191,0,
00:00:09.816,-0.00683889770880342,0,
00:00:09.82,0.00230747601017356,0,
00:00:09.824,0.00725308991968632,0,
00:00:09.828,-0.00495094712823629,0,
00:00:09.832,-0.00418788054957986,0,
00:00:09.836,0.00175984832458198,0,
00:00:09.84,0.00441335188224912,0,
00:00:09.844,-0.000977356568910182,0,
00:00:09.848,-0.00405046250671148,0,
00:00:09.852,0.000876139616593719,0,
00:00:09.856,0.00375732802785933,0,
00:00:09.86,0.000966505496762693,0,
00:00:09.864,-0.00787307415157557,0,
00:00:09.868,0.0015234915772453,0,
00:00:09.872,0.00750379357486963,0,
00:00:09.876,4.99696398037486E-05,0,
00:00:09.88,-0.0094134695827961,0,
00:00:09.884,-0.0012492046225816,0,
00:00:09.888,0.007602384313941,0,
00:00:09.892,0.00634983787313104,0,
00:00:09.896,-0.00696018245071173,0,
00:00:09.9,-0.00530887860804796,0,
00:00:09.904,0.0017602052539587,0,
00:00:09.908,0.00710133602842689,0,
00:00:09.912,-0.00438761757686734,0,
00:00:09.916,-0.00545992143452168,0,
00:00:09.92,0.00637312047183514,0,
00:00:09.924,0.00421205721795559,0,
00:00:09.928,-0.00057692191330716,0,
00:00:09.932,-0.00946126040071249,0,
00:00:09.936,-0.00133090710733086,0,
00:00:09.94,0.00954177789390087,0,
00:00:09.944,0.0022149970754981,0,
00:00:09.948,-0.00660487171262503,0,
00:00:09.952,-0.0037404727190733,0,
00:00:09.956,0.00497942790389061,0,
00:00:09.96,0.00125049566850066,0,
00:00:09.964,-0.00243915151804686,0,
00:00:09.968,-0.000835059094242752,0,
00:00:09.972,0.00725616700947285,0,
00:00:09.976,-0.000202119161258452,0,
00:00:09.98,-0.00788317993283272,0,
00:00:09.984,-0.00376078998669982,0,
00:00:09.988,0.00570190232247114,0,
00:00:09.992,0.00208591693080962,0,
00:00:09.996,-0.00190609041601419,0,
00:00:10,0.00136194191873074,0,
00:00:10.004,0.00303011992946267,0,
00:00:10.008,-0.000143379089422524,0,
00:00:10.012,-0.00455789593979716,0,
00:00:10.016,-0.00688075181096792,0,
00:00:10.02,0.00416787527501583,0,
00:00:10.024,0.00935980677604675,0,
00:00:10.028,-0.00159046077169478,0,
00:00:10.032,-0.00802635587751865,0,
00:00:10.036,0.00156591867562383,0,
00:00:10.04,0.00513460300862789,0,
00:00:10.044,0.001562898629345,0,
00:00:10.048,-0.00604903092607856,0,
00:00:10.052,-0.00107911217492074,0,
00:00:10.056,0.00324997794814408,0,
00:00:10.06,-0.000445635814685375,0,
00:00:10.064,-0.00487062148749828,0,
00:00:10.068,0.00183194014243782,0,
00:00:10.072,0.00987075641751289,0,
00:00:10.076,0.000638198922388256,0,
00:00:10.08,-0.00857044477015734,0,
00:00:10.084,-0.00502169830724597,0,
00:00:10.088,0.00469806510955095,0,
00:00:10.092,0.00377936847507954,0,
00:00:10.096,-0.00371180567890406,0,
00:00:10.1,-0.00192369660362601,0,
00:00:10.104,0.00523434532806277,0,
00:00:10.108,0.00255998899228871,0,
00:00:10.112,-0.00541307823732495,0,
00:00:10.116,-0.00315107917413116,0,
00:00:10.12,0.00275307148694992,0,
00:00:10.124,0.00479470053687692,0,
00:00:10.128,-0.00115341984201223,0,
00:00:10.132,-0.00447286106646061,0,
00:00:10.136,0.000502765295095742,0,
00:00:10.14,0.00358250248245895,0,
00:00:10.144,-0.00108702841680497,0,
00:00:10.148,-0.00576671259477735,0,
00:00:10.152,0.00330535718239844,0,
00:00:10.156,0.00569054530933499,0,
00:00:10.16,0.00119975907728076,0,
00:00:10.164,-0.00675335666164756,0,
00:00:10.168,-0.00372286257334054,0,
00:00:10.172,0.00500174751505256,0,
00:00:10.176,0.00335706840269268,0,
00:00:10.18,-0.00435917545109987,0,
00:00:10.184,-0.00240539736114442,0,
00:00:10.188,0.00506953475996852,0,
00:00:10.192,0.00265866168774664,0,
00:00:10.196,-0.00519906729459763,0,
00:00:10.2,-0.00295995804481208,0,
00:00:10.204,0.0049250889569521,0,
00:00:10.208,0.0028189632575959,0,
00:00:10.212,-0.00492798164486885,0,
00:00:10.216,-0.00273990305140615,0,
00:00:10.22,0.00294523313641548,0,
00:00:10.224,0.00685226218774915,0,
00:00:10.228,-0.00326213822700083,0,
00:00:10.232,-0.00833416637033224,0,
00:00:10.236,0.00221326877363026,0,
00:00:10.24,0.00812553986907005,0,
00:00:10.244,-0.00182659667916596,0,
00:00:10.248,-0.00549899600446224,0,
00:00:10.252,-0.00183361361268908,0,
00:00:10.256,0.00802438892424107,0,
00:00:10.26,-0.000854105805046856,0,
00:00:10.264,-0.0047846520319581,0,
00:00:10.268,0.000368056760635227,0,
00:00:10.272,0.00368972634896636,0,
00:00:10.276,0.00117312127258629,0,
00:00:10.28,-0.00555042130872607,0,
00:00:10.284,-0.0023884498514235,0,
00:00:10.288,0.00576222967356443,0,
00:00:10.292,0.00340186641551554,0,
00:00:10.296,-0.00478236190974712,0,
00:00:10.3,-0.00293544377200305,0,
00:00:10.304,0.00262234010733664,0,
00:00:10.308,0.00451239524409175,0,
00:00:10.312,-0.00140524457674474,0,
00:00:10.316,-0.00459943618625402,0,
00:00:10.32,0.000503624207340181,0,
00:00:10.324,0.00573330279439688,0,
00:00:10.328,-0.00505191879346967,0,
00:00:10.332,-0.003301888005808,0,
00:00:10.336,0.00280906911939383,0,
00:00:10.34,0.00505188480019569,0,
00:00:10.344,-0.000895296747330576,0,
00:00:10.348,-0.00435412814840674,0,
00:00:10.352,-0.00161135278176516,0,
00:00:10.356,0.00750449253246188,0,
00:00:10.36,-0.00155525899026543,0,
00:00:10.364,-0.00524020474404097,0,
00:00:10.368,-0.0017855562036857,0,
00:00:10.372,0.00586449634283781,0,
00:00:10.376,0.0031029493547976,0,
00:00:10.38,-0.00515213748440146,0,
00:00:10.384,-0.00314172031357884,0,
00:00:10.388,0.00470928009599447,0,
00:00:10.392,0.00268988427706063,0,
00:00:10.396,-0.00286752986721694,0,
00:00:10.4,-0.00672959163784981,0,
00:00:10.404,0.00751152541488409,0,
00:00:10.408,0.0023495820350945,0,
00:00:10.412,-0.00560653256252408,0,
00:00:10.416,-0.00282100471667945,0,
00:00:10.42,0.00332100410014391,0,
00:00:10.424,0.00522646447643638,0,
00:00:10.428,-0.00103126873727888,0,
00:00:10.432,-0.0046169557608664,0,
00:00:10.436,0.000245670176809654,0,
00:00:10.44,0.003359982278198,0,
00:00:10.444,0.000877626589499414,0,
00:00:10.448,-0.00774201611056924,0,
00:00:10.452,0.00172776763793081,0,
00:00:10.456,0.00766363088041544,0,
00:00:10.46,-0.0019603839609772,0,
00:00:10.464,-0.00538015877828002,0,
00:00:10.468,-0.00164126511663198,0,
00:00:10.472,0.00607988517731428,0,
00:00:10.476,0.00322223897092044,0,
00:00:10.48,-0.00724893668666482,0,
00:00:10.484,-0.00127963116392493,0,
00:00:10.488,0.0082988440990448,0,
00:00:10.492,0.000805272080469877,0,
00:00:10.496,-0.00953030679374933,0,
00:00:10.5,0.000187337922398001,0,
00:00:10.504,0.00501912599429488,0,
00:00:10.508,0.000297403457807377,0,
00:00:10.512,-0.00100607669446617,0,
00:00:10.516,-0.00493343966081738,0,
00:00:10.52,0.00584958260878921,0,
00:00:10.524,0.00571177853271365,0,
00:00:10.528,-0.00695289950817823,0,
00:00:10.532,-0.00500511098653078,0,
00:00:10.536,0.00210059434175491,0,
00:00:10.54,0.00732883112505078,0,
00:00:10.544,-0.0043118204921484,0,
00:00:10.548,-0.00342154246754944,0,
00:00:10.552,0.00223898212425411,0,
00:00:10.556,0.00654926151037216,0,
00:00:10.56,-0.00319651886820793,0,
00:00:10.564,-0.0081045301631093,0,
00:00:10.568,0.00241871783509851,0,
00:00:10.572,0.00613890215754509,0,
00:00:10.576,0.00219974736683071,0,
00:00:10.58,-0.00591665878891945,0,
00:00:10.584,-0.00338317407295108,0,
00:00:10.588,0.00487993704155087,0,
00:00:10.592,0.00300490553490818,0,
00:00:10.596,-0.00470058619976044,0,
00:00:10.6,-0.00467195315286517,0,
00:00:10.604,0.00702337268739939,0,
00:00:10.608,0.00438730325549841,0,
00:00:10.612,-0.00283360411413014,0,
00:00:10.616,-0.00569845922291279,0,
00:00:10.62,0.00228149490430951,0,
00:00:10.624,0.00199499586597085,0,
00:00:10.628,-0.00212527741678059,0,
00:00:10.632,-0.00549225229769945,0,
00:00:10.636,0.00430343858897686,0,
00:00:10.64,0.00870197080075741,0,
00:00:10.644,-0.00242155883461237,0,
00:00:10.648,-0.00651816884055734,0,
00:00:10.652,-0.00264970120042562,0,
00:00:10.656,0.00768838915973902,0,
00:00:10.66,-0.000758403039071709,0,
00:00:10.664,-0.00654989061877131,0,
00:00:10.668,0.0026477905921638,0,
00:00:10.672,0.00550249963998795,0,
00:00:10.676,0.00136959995143116,0,
00:00:10.68,-0.00854627229273319,0,
00:00:10.684,-0.00154147844295949,0,
00:00:10.688,0.00877834297716618,0,
00:00:10.692,0.00149861187674105,0,
00:00:10.696,-0.0069514736533165,0,
00:00:10.7,-0.00370063632726669,0,
00:00:10.704,0.00523939589038491,0,
00:00:10.708,0.0036085625179112,0,
00:00:10.712,-0.00423823483288288,0,
00:00:10.716,-0.00243784254416823,0,
00:00:10.72,0.00287003256380558,0,
00:00:10.724,0.00450182147324085,0,
00:00:10.728,-0.0015654080780223,0,
00:00:10.732,-0.00270397984422743,0,
00:00:10.736,-0.00158697506412864,0,
00:00:10.74,0.0019875387661159,0,
00:00:10.744,-0.0011427755234763,0,
00:00:10.748,-0.00273556727916002,0,
00:00:10.752,0.00241688918322325,0,
00:00:10.756,0.00468163890764117,0,
00:00:10.76,0.00107273831963539,0,
00:00:10.764,-0.00624967226758599,0,
00:00:10.768,-0.00312958750873804,0,
00:00:10.772,0.00739857787266374,0,
00:00:10.776,-0.000718253024388105,0,
00:00:10.78,-0.00426893448457122,0,
00:00:10.784,-0.00122054666280746,0,
00:00:10.788,0.00382606172934175,0,
00:00:10.792,0.00476388586685061,0,
00:00:10.796,-0.0018328937003389,0,
00:00:10.8,-0.00522260181605816,0,
00:00:10.804,0.00212882296182215,0,
00:00:10.808,0.00153924257028848,0,
00:00:10.812,-0.00461287517100573,0,
00:00:10.816,-0.00370321376249194,0,
00:00:10.82,0.0080616632476449,0,
00:00:10.824,0.00706733157858253,0,
00:00:10.828,-0.00681284628808498,0,
00:00:10.832,-0.00772182177752256,0,
00:00:10.836,0.00535022001713514,0,
00:00:10.84,0.0043895710259676,0,
00:00:10.844,0.000220213696593419,0,
00:00:10.848,-0.00865786336362362,0,
00:00:10.852,0.00119598454330117,0,
00:00:10.856,0.00553538091480732,0,
00:00:10.86,0.00233264220878482,0,
00:00:10.864,-0.00749251339584589,0,
00:00:10.868,0.00113600143231452,0,
00:00:10.872,0.00476815411821008,0,
00:00:10.876,-0.000570594798773527,0,
00:00:10.88,-0.00392368948087096,0,
00:00:10.884,-0.00132936728186905,0,
00:00:10.888,0.00758075574412942,0,
00:00:10.892,-0.00162436265964061,0,
00:00:10.896,-0.00535826105624437,0,
00:00:10.9,-0.00187756842933595,0,
00:00:10.904,0.0058293417096138,0,
00:00:10.908,0.00311713269911706,0,
00:00:10.912,-0.00511478492990136,0,
00:00:10.916,-0.00310672051273286,0,
00:00:10.92,0.00472790468484163,0,
00:00:10.924,0.00269093154929578,0,
00:00:10.928,-0.00287722097709775,0,
00:00:10.932,-0.00466562760993838,0,
00:00:10.936,0.00137665506917983,0,
00:00:10.94,0.00673164334148169,0,
00:00:10.944,-0.00239703827537596,0,
00:00:10.948,-0.00731368316337466,0,
00:00:10.952,0.0028224668931216,0,
00:00:10.956,0.00611089915037155,0,
00:00:10.96,0.00191228080075234,0,
00:00:10.964,-0.00831793807446957,0,
00:00:10.968,-0.00162022770382464,0,
00:00:10.972,0.00854099169373512,0,
00:00:10.976,-0.000811120553407818,0,
00:00:10.98,-0.00303413206711411,0,
00:00:10.984,-0.00405236380174756,0,
00:00:10.988,0.00383116211742163,0,
00:00:10.992,0.00266520213335752,0,
00:00:10.996,-0.00436798809096217,0,
00:00:11,-0.00202170410193503,0,
00:00:11.004,0.00548452092334628,0,
00:00:11.008,0.000810466590337455,0,
00:00:11.012,-0.00114471931010485,0,
00:00:11.016,-0.00343157490715384,0,
00:00:11.02,0.0012183825019747,0,
00:00:11.024,0.0057377777993679,0,
00:00:11.028,-0.00547970831394196,0,
00:00:11.032,-0.00378094171173871,0,
00:00:11.036,0.00252505647949874,0,
00:00:11.04,0.00709290010854602,0,
00:00:11.044,-0.00481302011758089,0,
00:00:11.048,-0.00384274683892727,0,
00:00:11.052,0.00205879635177553,0,
00:00:11.056,0.00451906723901629,0,
00:00:11.06,-0.00105952436570078,0,
00:00:11.064,-0.00422501796856523,0,
00:00:11.068,0.000713266839738935,0,
00:00:11.072,0.00366698182187974,0,
00:00:11.076,0.000955658324528486,0,
00:00:11.08,-0.00575756747275591,0,
00:00:11.084,-0.00247550057247281,0,
00:00:11.088,0.0057982774451375,0,
00:00:11.092,0.00142681133002043,0,
00:00:11.096,-0.00270794192329049,0,
00:00:11.1,-0.00123625551350415,0,
00:00:11.104,0.00903532281517982,0,
00:00:11.108,-0.00435543758794665,0,
00:00:11.112,-0.0074914782308042,0,
00:00:11.116,-0.00424289470538497,0,
00:00:11.12,0.00881204754114151,0,
00:00:11.124,0.00812227185815573,0,
00:00:11.128,-0.00400138972327113,0,
00:00:11.132,-0.00947496574372053,0,
00:00:11.136,0.00145916431210935,0,
00:00:11.14,0.00793628767132759,0,
00:00:11.144,-0.00162062223535031,0,
00:00:11.148,-0.0051683378405869,0,
00:00:11.152,-0.00158443325199187,0,
00:00:11.156,0.00811189040541649,0,
00:00:11.16,-0.000902206753380597,0,
00:00:11.164,-0.00696869473904371,0,
00:00:11.168,0.002245859708637,0,
00:00:11.172,0.00735802855342627,0,
00:00:11.176,-0.00270114606246352,0,
00:00:11.18,-0.00810691341757774,0,
00:00:11.184,0.00213337107561529,0,
00:00:11.188,0.00791566912084818,0,
00:00:11.192,-0.00200539943762124,0,
00:00:11.196,-0.00557115860283375,0,
00:00:11.2,-0.00180580478627235,0,
00:00:11.204,0.00602621352300048,0,
00:00:11.208,0.00327182654291391,0,
00:00:11.212,-0.00507632130756974,0,
00:00:11.216,-0.00316825439222157,0,
00:00:11.22,0.0046261316165328,0,
00:00:11.224,0.00260551809333265,0,
00:00:11.228,-0.00499372929334641,0,
00:00:11.232,-0.00476372800767422,0,
00:00:11.236,0.00709621282294393,0,
00:00:11.24,0.00660454295575619,0,
00:00:11.244,-0.00468652416020632,0,
00:00:11.248,-0.00935701467096806,0,
00:00:11.252,0.00200105621479452,0,
00:00:11.256,0.00641705468297005,0,
00:00:11.26,0.000679188233334571,0,
00:00:11.264,-0.00140240963082761,0,
00:00:11.268,-0.00144192774314433,0,
00:00:11.272,0.00139150209724903,0,
00:00:11.276,-0.00190800952259451,0,
00:00:11.28,-0.0032631978392601,0,
00:00:11.284,0.000184247473953292,0,
00:00:11.288,0.00678716599941254,0,
00:00:11.292,0.00295832473784685,0,
00:00:11.296,-0.00586682604625821,0,
00:00:11.3,-0.00387676851823926,0,
00:00:11.304,0.00428525591269135,0,
00:00:11.308,0.00263496022671461,0,
00:00:11.312,-0.00475587509572506,0,
00:00:11.316,-0.00242837192490697,0,
00:00:11.32,0.00528245093300939,0,
00:00:11.324,0.00292180711403489,0,
00:00:11.328,-0.00294214673340321,0,
00:00:11.332,-0.00695505039766431,0,
00:00:11.336,0.00314155477099121,0,
00:00:11.34,0.00825493969023228,0,
00:00:11.344,-0.00431007938459516,0,
00:00:11.348,-0.0061281924135983,0,
00:00:11.352,0.00558215845376253,0,
00:00:11.356,0.00580720789730549,0,
00:00:11.36,-0.00468885339796543,0,
00:00:11.364,-0.00889824796468019,0,
00:00:11.368,0.00459636654704809,0,
00:00:11.372,0.00476415641605854,0,
00:00:11.376,-0.000900002021808177,0,
00:00:11.38,-0.0037742261774838,0,
00:00:11.384,0.00120047852396965,0,
00:00:11.388,0.0039272652938962,0,
00:00:11.392,0.000923194107599556,0,
00:00:11.396,-0.00805738009512424,0,
00:00:11.4,-0.000759794202167541,0,
00:00:11.404,0.00933724921196699,0,
00:00:11.408,-0.000430690532084554,0,
00:00:11.412,-0.00515824975445867,0,
00:00:11.416,-0.00236700498498976,0,
00:00:11.42,0.0051610847003758,0,
00:00:11.424,0.00264902855269611,0,
00:00:11.428,-0.00525215268135071,0,
00:00:11.432,-0.00506015866994858,0,
00:00:11.436,0.00692856684327126,0,
00:00:11.44,0.00452339043840766,0,
00:00:11.444,-0.000535569561179727,0,
00:00:11.448,-0.00749222049489617,0,
00:00:11.452,-0.00135479983873665,0,
00:00:11.456,0.00378186558373272,0,
00:00:11.46,0.000298756494885311,0,
00:00:11.464,-0.00227532372809947,0,
00:00:11.468,2.25680082621693E-06,0,
00:00:11.472,0.00600682245567441,0,
00:00:11.476,0.00217742356471717,0,
00:00:11.48,-0.00630167406052351,0,
00:00:11.484,-0.00391586497426033,0,
00:00:11.488,0.00449781632050872,0,
00:00:11.492,0.00290496228262782,0,
00:00:11.496,-0.0045676245354116,0,
00:00:11.5,-0.000292802491458133,0,
00:00:11.504,0.00326615432277322,0,
00:00:11.508,-0.000878326129168272,0,
00:00:11.512,-0.00329078803770244,0,
00:00:11.516,0.00162254110909998,0,
00:00:11.52,0.00411564484238625,0,
00:00:11.524,0.000907127803657204,0,
00:00:11.528,-0.00609488599002361,0,
00:00:11.532,-0.00284576113335788,0,
00:00:11.536,0.00556405307725072,0,
00:00:11.54,0.00344720762223005,0,
00:00:11.544,-0.00253482977859676,0,
00:00:11.548,-0.00681308098137379,0,
00:00:11.552,0.00305618694983423,0,
00:00:11.556,0.00806811079382896,0,
00:00:11.56,-0.00240232213400304,0,
00:00:11.564,-0.00818908307701349,0,
00:00:11.568,0.00186357833445072,0,
00:00:11.572,0.00765467388555408,0,
00:00:11.576,-7.09834348526783E-05,0,
00:00:11.58,-0.00963140930980444,0,
00:00:11.584,-0.00139958818908781,0,
00:00:11.588,0.00965700950473547,0,
00:00:11.592,0.000301999360090122,0,
00:00:11.596,-0.00453967228531837,0,
00:00:11.6,-0.00211493042297661,0,
00:00:11.604,0.00506932567805052,0,
00:00:11.608,0.00238432129845023,0,
00:00:11.612,-0.00343381892889738,0,
00:00:11.616,-0.00718028796836734,0,
00:00:11.62,0.00526902871206403,0,
00:00:11.624,0.00441063800826669,0,
00:00:11.628,-0.0037598900962621,0,
00:00:11.632,-0.00245386664755642,0,
00:00:11.636,0.00257987482473254,0,
00:00:11.64,0.0062814150005579,0,
00:00:11.644,-0.00368855614215136,0,
00:00:11.648,-0.00847979728132486,0,
00:00:11.652,0.00230178749188781,0,
00:00:11.656,0.00831660442054272,0,
00:00:11.66,-0.00165604974608868,0,
00:00:11.664,-0.00541311129927635,0,
00:00:11.668,0.000241822199313901,0,
00:00:11.672,0.0039226827211678,0,
00:00:11.676,-0.000579106446821243,0,
00:00:11.68,-0.00335740600712597,0,
00:00:11.684,0.00137827673461288,0,
00:00:11.688,0.0038856603205204,0,
00:00:11.692,0.000794385268818587,0,
00:00:11.696,-0.00816037505865097,0,
00:00:11.7,-0.000789495301432908,0,
00:00:11.704,0.00729501666501164,0,
00:00:11.708,0.00368020823225379,0,
00:00:11.712,-0.00544050708413124,0,
00:00:11.716,-0.00380746787413955,0,
00:00:11.72,0.00206419918686152,0,
00:00:11.724,0.00649935286492109,0,
00:00:11.728,-0.00520595628768206,0,
00:00:11.732,-0.00598732894286513,0,
00:00:11.736,0.00628894101828337,0,
00:00:11.74,0.00652574421837926,0,
00:00:11.744,-0.0063663418404758,0,
00:00:11.748,-0.0048202108591795,0,
00:00:11.752,0.0019780530128628,0,
00:00:11.756,0.00708903465420008,0,
00:00:11.76,-0.00243410817347467,0,
00:00:11.764,-0.0075569418258965,0,
00:00:11.768,0.00259289680980146,0,
00:00:11.772,0.00808839220553637,0,
00:00:11.776,-0.00210278644226491,0,
00:00:11.78,-0.00580163393169641,0,
00:00:11.784,5.18719061801676E-05,0,
00:00:11.788,0.00600545154884458,0,
00:00:11.792,-0.00243543437682092,0,
00:00:11.796,-0.00486603705212474,0,
00:00:11.8,-0.0028657226357609,0,
00:00:11.804,0.0107745826244354,0,
00:00:11.808,0.00310416636057198,0,
00:00:11.812,-0.00886006746441126,0,
00:00:11.816,-0.00260362192057073,0,
00:00:11.82,0.00576777942478657,0,
00:00:11.824,0.00511721381917596,0,
00:00:11.828,-0.0072387563996017,0,
00:00:11.832,-0.0069421767257154,0,
00:00:11.836,0.00650788657367229,0,
00:00:11.84,0.00524853356182575,0,
00:00:11.844,-0.0015621354104951,0,
00:00:11.848,-0.00686036329716444,0,
00:00:11.852,0.00245298491790891,0,
00:00:11.856,0.00744347367435694,0,
00:00:11.86,-0.00273593841120601,0,
00:00:11.864,-0.00818775501102209,0,
00:00:11.868,0.00207143602892756,0,
00:00:11.872,0.00789922103285789,0,
00:00:11.876,-0.00198369333520532,0,
00:00:11.88,-0.00553421722725034,0,
00:00:11.884,-0.00177482585422695,0,
00:00:11.888,0.0060407817363739,0,
00:00:11.892,0.00327065773308277,0,
00:00:11.896,-0.00508617237210274,0,
00:00:11.9,-0.00317896110936999,0,
00:00:11.904,0.00461951084434986,0,
00:00:11.908,0.00260412134230137,0,
00:00:11.912,-0.00499147642403841,0,
00:00:11.916,-0.00268453080207109,0,
00:00:11.92,0.00512351933866739,0,
00:00:11.924,0.00288775819353759,0,
00:00:11.928,-0.00288857822306454,0,
00:00:11.932,-0.00687323417514563,0,
00:00:11.936,0.00528055289760232,0,
00:00:11.94,0.00422904174774885,0,
00:00:11.944,-0.00190886249765754,0,
00:00:11.948,-0.00666230544447899,0,
00:00:11.952,0.00286120735108852,0,
00:00:11.956,0.00777784874662757,0,
00:00:11.96,-0.00260223844088614,0,
00:00:11.964,-0.00823640357702971,0,
00:00:11.968,0.00193341239355505,0,
00:00:11.972,0.00776667520403862,0,
00:00:11.976,-0.00205666013062,0,
00:00:11.98,-0.00761692970991135,0,
00:00:11.984,0.00231093121692538,0,
00:00:11.988,0.00782739836722612,0,
00:00:11.992,-0.00429050484672189,0,
00:00:11.996,-0.00171185191720724,0,
00:00:12,-0.00223887339234352,0,
00:00:12.004,0.00455788755789399,0,
00:00:12.008,0.00230653421021998,0,
00:00:12.012,-0.00727210519835353,0,
00:00:12.016,-0.000752736523281783,0,
00:00:12.02,0.00682895770296454,0,
00:00:12.024,0.00315372995100915,0,
00:00:12.028,-0.0036729876883328,0,
00:00:12.032,-0.00581407360732555,0,
00:00:12.036,0.000575259036850184,0,
00:00:12.04,0.00444589834660292,0,
00:00:12.044,-0.000169610750162974,0,
00:00:12.048,-0.00316855474375188,0,
00:00:12.052,0.0013763930182904,0,
00:00:12.056,0.00586126698181033,0,
00:00:12.06,-0.00544038135558367,0,
00:00:12.064,-0.00383882527239621,0,
00:00:12.068,0.00240987166762352,0,
00:00:12.072,0.00490229530259967,0,
00:00:12.076,0.00124033237807453,0,
00:00:12.08,-0.0082487678155303,0,
00:00:12.084,-0.00113228289410472,0,
00:00:12.088,0.00904648844152689,0,
00:00:12.092,-0.000531749159563333,0,
00:00:12.096,-0.00509598664939404,0,
00:00:12.1,-0.000156010428327136,0,
00:00:12.104,0.00330727454274893,0,
00:00:12.108,0.00106887985020876,0,
00:00:12.112,-0.00542860897257924,0,
00:00:12.116,-0.00425295578315854,0,
00:00:12.12,0.00791477132588625,0,
00:00:12.124,0.00720262061804533,0,
00:00:12.128,-0.00658790161833167,0,
00:00:12.132,-0.00547698233276606,0,
00:00:12.136,0.00343209598213434,0,
00:00:12.14,0.00271151238121092,0,
00:00:12.144,-0.00210906798020005,0,
00:00:12.148,-0.00590760726481676,0,
00:00:12.152,0.00590767338871956,0,
00:00:12.156,0.00436828285455704,0,
00:00:12.16,-0.0021257649641484,0,
00:00:12.164,-0.00699952943250537,0,
00:00:12.168,0.00259629497304559,0,
00:00:12.172,0.00559246959164739,0,
00:00:12.176,-0.000598802231252193,0,
00:00:12.18,-0.00442200619727373,0,
00:00:12.184,0.000230299818213098,0,
00:00:12.188,0.00118384615052491,0,
00:00:12.192,0.000695497496053576,0,
00:00:12.196,6.75136971040047E-06,0,
00:00:12.2,-0.00452272547408938,0,
00:00:12.204,0.00771777238696814,0,
00:00:12.208,0.0012190577108413,0,
00:00:12.212,-0.00695390300825238,0,
00:00:12.216,-0.00362799339927733,0,
00:00:12.22,0.00531359389424324,0,
00:00:12.224,0.00158588704653084,0,
00:00:12.228,-0.00430941069498658,0,
00:00:12.232,0.00326596572995186,0,
00:00:12.236,0.00478926301002502,0,
00:00:12.24,-0.00186137238051742,0,
00:00:12.244,-0.00328339426778257,0,
00:00:12.248,1.98072757484624E-05,0,
00:00:12.252,0.00192503619473428,0,
00:00:12.256,-0.00256875855848193,0,
00:00:12.26,-0.00628369953483343,0,
00:00:12.264,-0.00456099864095449,0,
00:00:12.268,0.0124217914417386,0,
00:00:12.272,0.00435739709064364,0,
00:00:12.276,-0.0104665346443653,0,
00:00:12.28,0.014067392796278,0,
00:00:12.284,0.0187296867370605,0,
00:00:12.288,-0.0212159100919962,0,
00:00:12.292,-0.0240539032965899,0,
00:00:12.296,-0.00984896253794432,0,
00:00:12.3,0.0092126140370965,0,
00:00:12.304,0.0375899821519852,0,
00:00:12.308,0.00982552394270897,0,
00:00:12.312,-0.0260704420506954,0,
00:00:12.316,-0.0100878123193979,0,
00:00:12.32,0.00102943344973028,0,
00:00:12.324,-0.00515567511320114,0,
00:00:12.328,0.00176503008697182,0,
00:00:12.332,0.00486606871709228,0,
00:00:12.336,0.0212292820215225,0,
00:00:12.34,-0.00285618822090328,0,
00:00:12.344,-0.0289207249879837,0,
00:00:12.348,0.018035352230072,0,
00:00:12.352,0.0270571820437908,0,
00:00:12.356,-0.0270312260836363,0,
00:00:12.36,-0.0270866602659225,0,
00:00:12.364,0.00271836202591658,0,
00:00:12.368,0.00583352148532867,0,
00:00:12.372,0.0142178796231747,0,
00:00:12.376,0.0219977032393217,0,
00:00:12.38,0.0127012254670262,0,
00:00:12.384,-0.018671914935112,0,
00:00:12.388,-0.0338460505008698,0,
00:00:12.392,-0.00921712256968021,0,
00:00:12.396,0.023023147135973,0,
00:00:12.4,0.0110517702996731,0,
00:00:12.404,0.00446485355496407,0,
00:00:12.408,-0.00858750008046627,0,
00:00:12.412,-0.0139709124341607,0,
00:00:12.416,0.0162217020988464,0,
00:00:12.42,0.0225918255746365,0,
00:00:12.424,-0.0203856527805328,0,
00:00:12.428,-0.0210920237004757,0,
00:00:12.432,-0.00880014710128307,0,
00:00:12.436,0.012274251319468,0,
00:00:12.44,0.021304314956069,0,
00:00:12.444,0.00654603820294142,0,
00:00:12.448,-0.00676331715658307,0,
00:00:12.452,0.00367318233475089,0,
00:00:12.456,-0.000536354549694806,0,
00:00:12.46,-0.0368513390421867,0,
00:00:12.464,-0.0105359889566898,0,
00:00:12.468,0.0225534737110138,0,
00:00:12.472,0.0347643420100212,0,
00:00:12.476,0.00344769121147692,0,
00:00:12.48,-0.0275532100349665,0,
00:00:12.484,-0.00534613197669387,0,
00:00:12.488,0.00677923951297998,0,
00:00:12.492,-0.00243130000308156,0,
00:00:12.496,0.0027368285227567,0,
00:00:12.5,-0.000513868813868612,0,
00:00:12.504,-0.0026609601918608,0,
00:00:12.508,0.00210885843262076,0,
00:00:12.512,0.000155114714289084,0,
00:00:12.516,0.000646635482553393,0,
00:00:12.52,0.00719088967889547,0,
00:00:12.524,-0.00322374934330583,0,
00:00:12.528,-0.00898316316306591,0,
00:00:12.532,0.0034565799869597,0,
00:00:12.536,0.00354997115209699,0,
00:00:12.54,-0.00569881778210402,0,
00:00:12.544,-0.0101726809516549,0,
00:00:12.548,0.0168901681900024,0,
00:00:12.552,0.0359525084495544,0,
00:00:12.556,-0.0414760783314705,0,
00:00:12.56,-0.0681203827261925,0,
00:00:12.564,0.0727755054831505,0,
00:00:12.568,0.0941205322742462,0,
00:00:12.572,-0.0555043444037437,0,
00:00:12.576,-0.0903579294681549,0,
00:00:12.58,-0.0167252998799086,0,
00:00:12.584,0.0306700859218836,0,
00:00:12.588,0.0447685196995735,0,
00:00:12.592,0.0215730611234903,0,
00:00:12.596,-0.00376085005700588,0,
00:00:12.6,-0.0164466369897127,0,
00:00:12.604,-0.0157780554145575,0,
00:00:12.608,0.00256699766032398,0,
00:00:12.612,0.0115658454596996,0,
00:00:12.616,-0.016125475987792,0,
00:00:12.62,-0.00665558967739344,0,
00:00:12.624,0.0123232742771506,0,
00:00:12.628,0.00883042626082897,0,
00:00:12.632,-0.00561703508719802,0,
00:00:12.636,-0.000644784362521023,0,
00:00:12.64,-0.00437087612226605,0,
00:00:12.644,-0.000868836301378906,0,
00:00:12.648,0.000278307241387665,0,
00:00:12.652,0.00298681086860597,0,
00:00:12.656,0.00550133408978581,0,
00:00:12.66,0.0144031280651689,0,
00:00:12.664,-0.00946533028036356,0,
00:00:12.668,-0.025398813188076,0,
00:00:12.672,-0.00121494918130338,0,
00:00:12.676,0.0266846902668476,0,
00:00:12.68,0.00298355706036091,0,
00:00:12.684,-0.0157327130436897,0,
00:00:12.688,-0.00215226598083973,0,
00:00:12.692,-0.00567273050546646,0,
00:00:12.696,-0.00582830142229795,0,
00:00:12.7,0.0238063260912895,0,
00:00:12.704,0.0325105078518391,0,
00:00:12.708,-0.0288080424070358,0,
00:00:12.712,-0.0455228611826897,0,
00:00:12.716,0.0257035065442324,0,
00:00:12.72,0.0453235432505608,0,
00:00:12.724,-0.025765098631382,0,
00:00:12.728,-0.027116222307086,0,
00:00:12.732,-0.0175282452255487,0,
00:00:12.736,0.0190463215112686,0,
00:00:12.74,0.0285642519593239,0,
00:00:12.744,0.00706017017364502,0,
00:00:12.748,-0.00640601757913828,0,
00:00:12.752,-0.00835937447845936,0,
00:00:12.756,-0.00978932995349169,0,
00:00:12.76,-0.00644669216126204,0,
00:00:12.764,-0.00294846389442682,0,
00:00:12.768,0.00550235109403729,0,
00:00:12.772,0.0254010241478682,0,
00:00:12.776,0.0051508299075067,0,
00:00:12.78,-0.0253114551305771,0,
00:00:12.784,-0.0172750018537045,0,
00:00:12.788,0.00984186306595802,0,
00:00:12.792,0.0231907945126295,0,
00:00:12.796,-0.00779145862907171,0,
00:00:12.8,-0.00718140741810203,0,
00:00:12.804,0.00611036084592342,0,
00:00:12.808,-0.00416488200426102,0,
00:00:12.812,-0.013999436981976,0,
00:00:12.816,0.0034031078685075,0,
00:00:12.82,0.0266157072037458,0,
00:00:12.824,-0.0015934199327603,0,
00:00:12.828,-0.0249446202069521,0,
00:00:12.832,0.026185654103756,0,
00:00:12.836,-0.00480775954201818,0,
00:00:12.84,-0.027565686032176,0,
00:00:12.844,-0.00100354000460356,0,
00:00:12.848,0.00829203147441149,0,
00:00:12.852,0.0062013752758503,0,
00:00:12.856,0.010654279962182,0,
00:00:12.86,0.0107953939586878,0,
00:00:12.864,0.002099075820297,0,
00:00:12.868,-0.0225937943905592,0,
00:00:12.872,-0.00989079847931862,0,
00:00:12.876,0.00704306131228805,0,
00:00:12.88,-0.00606879312545061,0,
00:00:12.884,0.00304559315554798,0,
00:00:12.888,0.0138502968475223,0,
00:00:12.892,0.00670674676075578,0,
00:00:12.896,-0.0106648551300168,0,
00:00:12.9,0.00114711315836757,0,
00:00:12.904,-0.00987232942134142,0,
00:00:12.908,0.00580111239105463,0,
00:00:12.912,0.0199129097163677,0,
00:00:12.916,-0.0130587182939053,0,
00:00:12.92,-0.022297453135252,0,
00:00:12.924,-0.000578524777665734,0,
00:00:12.928,0.0353453941643238,0,
00:00:12.932,-0.0211396310478449,0,
00:00:12.936,-0.00628003617748618,0,
00:00:12.94,0.0164384711533785,0,
00:00:12.944,0.00121058197692037,0,
00:00:12.948,-0.011244441382587,0,
00:00:12.952,-0.00119471387006342,0,
00:00:12.956,0.00459050526842475,0,
00:00:12.96,-0.0015054966788739,0,
00:00:12.964,-0.00268957554362714,0,
00:00:12.968,0.00516416551545262,0,
00:00:12.972,0.0075220912694931,0,
00:00:12.976,-0.00638815853744745,0,
00:00:12.98,-0.00801427848637104,0,
00:00:12.984,0.000554775586351752,0,
00:00:12.988,0.0057565588504076,0,
00:00:12.992,0.00949199311435223,0,
00:00:12.996,-0.00420005107298493,0,
00:00:13,-0.0112755736336112,0,
00:00:13.004,-0.00246500712819397,0,
00:00:13.008,-0.00334877776913345,0,
00:00:13.012,0.0143203604966402,0,
00:00:13.016,0.00599662261083722,0,
00:00:13.02,0.00437059160321951,0,
00:00:13.024,-0.0132795823737979,0,
00:00:13.028,-0.0158390030264854,0,
00:00:13.032,0.0029468173161149,0,
00:00:13.036,0.0138633968308568,0,
00:00:13.04,0.00609856192022562,0,
00:00:13.044,-0.00034662414691411,0,
00:00:13.048,-0.00355880940333009,0,
00:00:13.052,-0.00578100327402353,0,
00:00:13.056,-0.00220992951653898,0,
00:00:13.06,0.0013058694312349,0,
00:00:13.064,0.0109936119988561,0,
00:00:13.068,0.000464217126136646,0,
00:00:13.072,-0.0117568681016564,0,
00:00:13.076,-0.00820469483733177,0,
00:00:13.08,0.00168697151821107,0,
00:00:13.084,0.0155340414494276,0,
00:00:13.088,0.00515926536172628,0,
00:00:13.092,-0.00941446982324123,0,
00:00:13.096,0.00182752020191401,0,
00:00:13.1,-0.0122140580788255,0,
00:00:13.104,0.00508484896272421,0,
00:00:13.108,0.0168990679085255,0,
00:00:13.112,-0.00945601332932711,0,
00:00:13.116,-0.00961890909820795,0,
00:00:13.12,-0.000113343274279032,0,
00:00:13.124,0.00785975344479084,0,
00:00:13.128,-0.00657865172252059,0,
00:00:13.132,0.00851454120129347,0,
00:00:13.136,0.00458562234416604,0,
00:00:13.14,-0.00624383334070444,0,
00:00:13.144,-0.00955561175942421,0,
00:00:13.148,-0.00353131117299199,0,
00:00:13.152,0.0173312872648239,0,
00:00:13.156,0.0062898201867938,0,
00:00:13.16,-0.0184654518961906,0,
00:00:13.164,0.00405647838488221,0,
00:00:13.168,0.00966962799429893,0,
00:00:13.172,-0.00294030411168933,0,
00:00:13.176,-0.00784789212048054,0,
00:00:13.18,-0.00985576957464218,0,
00:00:13.184,0.00107061141170561,0,
00:00:13.188,0.0270466078072786,0,
00:00:13.192,0.00108500884380192,0,
00:00:13.196,-0.0205466691404581,0,
00:00:13.2,-0.0085342163220048,0,
00:00:13.204,0.0114212119951844,0,
00:00:13.208,0.00628770235925913,0,
00:00:13.212,-0.00797608122229576,0,
00:00:13.216,-0.00125232024583966,0,
00:00:13.22,-0.00106545689050108,0,
00:00:13.224,0.0304192956537008,0,
00:00:13.228,-0.00415723165497184,0,
00:00:13.232,-0.0361493080854416,0,
00:00:13.236,-0.0113130612298846,0,
00:00:13.24,0.00501054571941495,0,
00:00:13.244,0.040726613253355,0,
00:00:13.248,0.0119823757559061,0,
00:00:13.252,-0.0284486543387175,0,
00:00:13.256,-0.0138484509661794,0,
00:00:13.26,-0.00309489038772881,0,
00:00:13.264,0.00363222719170153,0,
00:00:13.268,0.012278257869184,0,
00:00:13.272,0.0116356061771512,0,
00:00:13.276,-0.00383318495005369,0,
00:00:13.28,-0.0118503449484706,0,
00:00:13.284,-0.00349958753213286,0,
00:00:13.288,-0.000253063684795052,0,
00:00:13.292,0.0158417075872421,0,
00:00:13.296,0.000601710809860379,0,
00:00:13.3,-0.0152269918471575,0,
