Elapsed Time,Ch1,BioRadio Event,
00:00:00,1.25377118587494,0,
00:00:00.004,-1.19101893901825,0,
00:00:00.008,-0.995845019817352,0,
00:00:00.012,-0.108673721551895,0,
00:00:00.016,0.514528095722198,0,
00:00:00.02,0.623452603816986,0,
00:00:00.024,0.375529587268829,0,
00:00:00.028,0.046167615801096,0,
00:00:00.032,-0.179090470075607,0,
00:00:00.036,-0.240146175026894,0,
00:00:00.04,-0.187849268317223,0,
00:00:00.044,-0.0720923990011215,0,
00:00:00.048,0.0319113805890083,0,
00:00:00.052,0.074484571814537,0,
00:00:00.056,0.0642038360238075,0,
00:00:00.06,0.0287921093404293,0,
00:00:00.064,0.00518441013991833,0,
00:00:00.068,-0.0102848280221224,0,
00:00:00.072,-0.024845389649272,0,
00:00:00.076,-0.0213067010045052,0,
00:00:00.08,-0.00661460310220718,0,
00:00:00.084,0.00968312285840511,0,
00:00:00.088,0.0082390857860446,0,
00:00:00.092,0.00497593497857451,0,
00:00:00.096,-0.000686030660290271,0,
00:00:00.1,0.00290476228110492,0,
00:00:00.104,-0.000356835691491142,0,
00:00:00.108,-0.00727290287613869,0,
00:00:00.112,-0.00565008446574211,0,
00:00:00.116,0.00738716078922153,0,
00:00:00.12,0.00536398636177182,0,
00:00:00.124,-0.00192959560081363,0,
00:00:00.128,-0.00730787077918649,0,
00:00:00.132,0.00426342710852623,0,
00:00:00.136,0.00544612901285291,0,
00:00:00.14,-0.0063119363039732,0,
00:00:00.144,-0.00620708055794239,0,
00:00:00.148,0.00676210038363934,0,
00:00:00.152,0.00509724346920848,0,
00:00:00.156,-0.00188712019007653,0,
00:00:00.16,-0.00714530749246478,0,
00:00:00.164,0.00439178850501776,0,
00:00:00.168,0.00340223615057766,0,
00:00:00.172,-0.000234547318541445,0,
00:00:00.176,-0.00859676580876112,0,
00:00:00.18,-0.000563394045457244,0,
00:00:00.184,0.00989625882357359,0,
00:00:00.188,0.00215885089710355,0,
00:00:00.192,-0.00896184332668781,0,
00:00:00.196,-0.00206143967807293,0,
00:00:00.2,0.00851761922240257,0,
00:00:00.204,0.00149311393033713,0,
00:00:00.208,-0.00683465320616961,0,
00:00:00.212,-0.00566252786666155,0,
00:00:00.216,0.00933865923434496,0,
00:00:00.22,0.00325630605220795,0,
00:00:00.224,-0.00783286523073912,0,
00:00:00.228,-0.00153495441190898,0,
00:00:00.232,0.00844885036349297,0,
00:00:00.236,0.00112142076250166,0,
00:00:00.24,-0.00720609305426478,0,
00:00:00.244,-0.00378615944646299,0,
00:00:00.248,0.00320564373396337,0,
00:00:00.252,0.00567793380469084,0,
00:00:00.256,-0.000438556511653587,0,
00:00:00.26,-0.00419752672314644,0,
00:00:00.264,-0.00169416470453143,0,
00:00:00.268,0.00732136843726039,0,
00:00:00.272,-0.00171546044293791,0,
00:00:00.276,-0.00531650241464376,0,
00:00:00.28,-0.00177916546817869,0,
00:00:00.284,0.00799265690147877,0,
00:00:00.288,0.00118454894982278,0,
00:00:00.292,-0.0088347876444459,0,
00:00:00.296,0.000739696901291609,0,
00:00:00.3,0.00520665664225817,0,
00:00:00.304,0.0022342533338815,0,
00:00:00.308,-0.00534655386582017,0,
00:00:00.312,-0.00278725731186569,0,
00:00:00.316,0.00520035577937961,0,
00:00:00.32,0.00300522823818028,0,
00:00:00.324,-0.00489887082949281,0,
00:00:00.328,-0.00283069466240704,0,
00:00:00.332,0.00281513435766101,0,
00:00:00.336,0.00675123697146773,0,
00:00:00.34,-0.00538011593744159,0,
00:00:00.344,-0.00634905369952321,0,
00:00:00.348,0.00389117025770247,0,
00:00:00.352,0.00833828561007977,0,
00:00:00.356,-0.000573236437048763,0,
00:00:00.36,-0.010575114749372,0,
00:00:00.364,-6.39575737295672E-05,0,
00:00:00.368,0.00742067117244005,0,
00:00:00.372,-0.00118376698810607,0,
00:00:00.376,-0.00644649378955364,0,
00:00:00.38,0.00309305195696652,0,
00:00:00.384,0.00800234731286764,0,
00:00:00.388,-0.00249600666575134,0,
00:00:00.392,-0.0062035103328526,0,
00:00:00.396,-0.00225606863386929,0,
00:00:00.4,0.00587326707318425,0,
00:00:00.404,0.0033576472196728,0,
00:00:00.408,-0.00488786771893501,0,
00:00:00.412,-0.0030006708111614,0,
00:00:00.416,0.00470960792154074,0,
00:00:00.42,0.00260400935076177,0,
00:00:00.424,-0.00296847592107952,0,
00:00:00.428,-0.0067965229973197,0,
00:00:00.432,0.00541732972487807,0,
00:00:00.436,0.00434277858585119,0,
00:00:00.44,-0.00185725546907634,0,
00:00:00.444,-0.00459337420761585,0,
00:00:00.448,-0.00122799223754555,0,
00:00:00.452,0.0080711068585515,0,
00:00:00.456,-0.0011612008092925,0,
00:00:00.46,-0.00722092017531395,0,
00:00:00.464,0.00420314678922296,0,
00:00:00.468,0.00333147402852774,0,
00:00:00.472,-0.00433837063610554,0,
00:00:00.476,-0.0024798724334687,0,
00:00:00.48,0.00288801663555205,0,
00:00:00.484,0.00872576702386141,0,
00:00:00.488,-0.0054206014610827,0,
00:00:00.492,-0.0100578162819147,0,
00:00:00.496,-2.01409275177866E-05,0,
00:00:00.5,0.00894121639430523,0,
00:00:00.504,0.00496904831379652,0,
00:00:00.508,-0.00290478952229023,0,
00:00:00.512,-0.00602768082171679,0,
00:00:00.516,0.0019408647203818,0,
00:00:00.52,0.00177130347583443,0,
00:00:00.524,-0.00428012246266007,0,
00:00:00.528,-0.00141428341157734,0,
00:00:00.532,0.00404064171016216,0,
00:00:00.536,0.00522367237135768,0,
00:00:00.54,-0.00351217482239008,0,
00:00:00.544,-0.00308851292356849,0,
00:00:00.548,0.00369731499813497,0,
00:00:00.552,0.00152289785910398,0,
00:00:00.556,-0.0035684765316546,0,
00:00:00.56,-0.00473909638822079,0,
00:00:00.564,0.00172109890263528,0,
00:00:00.568,0.00510967569425702,0,
00:00:00.572,-9.29804155020975E-05,0,
00:00:00.576,-0.00140334432944655,0,
00:00:00.58,-0.00100775412283838,0,
00:00:00.584,0.0018505637999624,0,
00:00:00.588,-0.00166637625079602,0,
00:00:00.592,-0.00327389291487634,0,
00:00:00.596,1.93191044672858E-05,0,
00:00:00.6,0.00659763952717185,0,
00:00:00.604,0.00283367559313774,0,
00:00:00.608,-0.00590072758495808,0,
00:00:00.612,-0.00176743080373853,0,
00:00:00.616,0.0023685391061008,0,
00:00:00.62,0.00104104657657444,0,
00:00:00.624,-0.00491154380142689,0,
00:00:00.628,-0.00158907053992152,0,
00:00:00.632,0.00629363348707557,0,
00:00:00.636,0.00353538035415113,0,
00:00:00.64,-0.00287048541940749,0,
00:00:00.644,-0.00725766085088253,0,
00:00:00.648,0.00273663573898375,0,
00:00:00.652,0.00795812346041203,0,
00:00:00.656,-0.00234273262321949,0,
00:00:00.66,-0.00598015356808901,0,
00:00:00.664,7.2668635766604E-06,0,
00:00:00.668,0.00399650866165757,0,
00:00:00.672,0.00172664504498243,0,
00:00:00.676,-0.00718226470053196,0,
00:00:00.68,0.0018400854896754,0,
00:00:00.684,0.00744324875995517,0,
00:00:00.688,-0.00229250709526241,0,
00:00:00.692,-0.00564040755853057,0,
00:00:00.696,-0.00174988410435617,0,
00:00:00.7,0.0061058672145009,0,
00:00:00.704,0.00331561802886426,0,
00:00:00.708,-0.0050804503262043,0,
00:00:00.712,-0.00320240692235529,0,
00:00:00.716,0.00458755483850837,0,
00:00:00.72,0.0025804010219872,0,
00:00:00.724,-0.00292452657595277,0,
00:00:00.728,-0.00673195021227002,0,
00:00:00.732,0.00546625489369035,0,
00:00:00.736,0.00436156382784247,0,
00:00:00.74,-0.00186414830386639,0,
00:00:00.744,-0.00668809423223138,0,
00:00:00.748,0.00280526513233781,0,
00:00:00.752,0.00772828981280327,0,
00:00:00.756,-0.00262678717263043,0,
00:00:00.76,-0.00823578797280788,0,
00:00:00.764,0.00194847700186074,0,
00:00:00.768,0.00778371701017022,0,
00:00:00.772,-0.00204578251577914,0,
00:00:00.776,-0.00553854973986745,0,
00:00:00.78,-0.00174352945759892,0,
00:00:00.784,0.0081552779302001,0,
00:00:00.788,-0.000753994914703071,0,
00:00:00.792,-0.00474496139213443,0,
00:00:00.796,-0.00172025279607624,0,
00:00:00.8,0.00770315621048212,0,
00:00:00.804,0.000803623523097485,0,
00:00:00.808,-0.00703526055440307,0,
00:00:00.812,-0.00340997311286628,0,
00:00:00.816,0.00558690121397376,0,
00:00:00.82,0.00381100922822952,0,
00:00:00.824,-0.0042251143604517,0,
00:00:00.828,-0.00255020265467465,0,
00:00:00.832,0.00272835185751319,0,
00:00:00.836,0.00647793477401137,0,
00:00:00.84,-0.00564936501905322,0,
00:00:00.844,-0.00442627537995577,0,
00:00:00.848,0.00189592409878969,0,
00:00:00.852,0.00676254415884614,0,
00:00:00.856,-0.00481358729302883,0,
00:00:00.86,-0.00364274345338345,0,
00:00:00.864,0.000218107175896876,0,
00:00:00.868,0.00872642360627651,0,
00:00:00.872,-0.00134915660601109,0,
00:00:00.876,-0.00573079288005829,0,
00:00:00.88,-0.00245488830842078,0,
00:00:00.884,0.00539735658094287,0,
00:00:00.888,0.00296783284284174,0,
00:00:00.892,-0.00295186880975962,0,
00:00:00.896,-0.00489055644720793,0,
00:00:00.9,0.00325768231414258,0,
00:00:00.904,0.00260101049207151,0,
00:00:00.908,-0.00410991860553622,0,
00:00:00.912,-0.00378896878100932,0,
00:00:00.916,0.00764178624376655,0,
00:00:00.92,0.00661891838535666,0,
00:00:00.924,-0.00709137786179781,0,
00:00:00.928,-0.00570793962106109,0,
00:00:00.932,0.00346553511917591,0,
00:00:00.936,0.00288830487988889,0,
00:00:00.94,-0.00192292698193341,0,
00:00:00.944,-0.00579535402357578,0,
00:00:00.948,0.00385292642749846,0,
00:00:00.952,0.00837808754295111,0,
00:00:00.956,-0.00251905736513436,0,
00:00:00.96,-0.00643394654616714,0,
00:00:00.964,-0.00041592528577894,0,
00:00:00.968,0.00377216842025518,0,
00:00:00.972,0.00171468988992274,0,
00:00:00.976,-0.00706493388861418,0,
00:00:00.98,-9.31421600398608E-05,0,
00:00:00.984,0.00951466336846352,0,
00:00:00.988,-0.000622801424469799,0,
00:00:00.992,-0.00548759801313281,0,
00:00:00.996,-0.00263678305782378,0,
00:00:01,0.00711716432124376,0,
00:00:01.004,-0.00138279155362397,0,
00:00:01.008,-0.00275084981694818,0,
00:00:01.012,-0.00339939328841865,0,
00:00:01.016,0.00438715098425746,0,
00:00:01.02,0.00289838458411396,0,
00:00:01.024,-0.00444074347615242,0,
00:00:01.028,-0.00432694330811501,0,
00:00:01.032,0.00723305810242891,0,
00:00:01.036,0.00647450657561421,0,
00:00:01.04,-0.00701177027076483,0,
00:00:01.044,-0.0055278604850173,0,
00:00:01.048,0.00155283615458757,0,
00:00:01.052,0.00702309887856245,0,
00:00:01.056,-0.00225471472367644,0,
00:00:01.06,-0.00730755692347884,0,
00:00:01.064,0.00277773360721767,0,
00:00:01.068,0.00608096458017826,0,
00:00:01.072,0.00191940483637154,0,
00:00:01.076,-0.00620824052020907,0,
00:00:01.08,-0.00355672556906939,0,
00:00:01.084,0.0069255237467587,0,
00:00:01.088,-0.000979629345238209,0,
00:00:01.092,-0.00634851865470409,0,
00:00:01.096,0.00299027282744646,0,
00:00:01.1,0.0078362924978137,0,
00:00:01.104,-0.00259707611985505,0,
00:00:01.108,-0.00619802344590425,0,
00:00:01.112,-0.00217507523484528,0,
00:00:01.116,0.00597185408696532,0,
00:00:01.12,0.00342802121303976,0,
00:00:01.124,-0.00486263958737254,0,
00:00:01.128,-0.00301213469356298,0,
00:00:01.132,0.00468174228444695,0,
00:00:01.136,0.00257851602509618,0,
00:00:01.14,-0.00298166577704251,0,
00:00:01.144,-0.00472110090777278,0,
00:00:01.148,0.00137350871227682,0,
00:00:01.152,0.00468466989696026,0,
00:00:01.156,-0.000386565108783543,0,
00:00:01.16,-0.00357207027263939,0,
00:00:01.164,0.00103112799115479,0,
00:00:01.168,0.00569602102041245,0,
00:00:01.172,-0.00335434335283935,0,
00:00:01.176,-0.0077815824188292,0,
00:00:01.18,0.00286236242391169,0,
00:00:01.184,0.00644172821193933,0,
00:00:01.188,0.00227642641402781,0,
00:00:01.192,-0.00601273169741035,0,
00:00:01.196,-0.00354267121292651,0,
00:00:01.2,0.0047502894885838,0,
00:00:01.204,0.00294782710261643,0,
00:00:01.208,-0.00469086784869432,0,
00:00:01.212,-0.00255157891660929,0,
00:00:01.216,0.0030181291513145,0,
00:00:01.22,0.00682328781113029,0,
00:00:01.224,-0.00541539955884218,0,
00:00:01.228,-0.00643195305019617,0,
00:00:01.232,0.00589176919311285,0,
00:00:01.236,0.00424877041950822,0,
00:00:01.24,-0.0023161715362221,0,
00:00:01.244,-0.00503705814480782,0,
00:00:01.248,0.000648142187856138,0,
00:00:01.252,0.00615730695426464,0,
00:00:01.256,-0.00259624258615077,0,
00:00:01.26,-0.00510925566777587,0,
00:00:01.264,-0.000951675407122821,0,
00:00:01.268,0.00877010449767113,0,
00:00:01.272,0.00153115019202232,0,
00:00:01.276,-0.00893653277307749,0,
00:00:01.28,0.000392258923966438,0,
00:00:01.284,0.0048511796630919,0,
00:00:01.288,0.0020207513589412,0,
00:00:01.292,-0.00538762845098972,0,
00:00:01.296,-0.00271055870689452,0,
00:00:01.3,0.00531287305057049,0,
00:00:01.304,0.00309042097069323,0,
00:00:01.308,-0.00486617442220449,0,
00:00:01.312,-0.000766907469369471,0,
00:00:01.316,0.00288264732807875,0,
00:00:01.32,0.00102706137113273,0,
00:00:01.324,-0.00524044968187809,0,
00:00:01.328,-0.00404231250286102,0,
00:00:01.332,0.00802289787679911,0,
00:00:01.336,0.00718887615948915,0,
00:00:01.34,-0.00459938170388341,0,
00:00:01.344,-0.00962464977055788,0,
00:00:01.348,0.00162751448806375,0,
00:00:01.352,0.00821183901280165,0,
00:00:01.356,-0.00140462373383343,0,
00:00:01.36,-0.00508196046575904,0,
00:00:01.364,-0.0016118863131851,0,
00:00:01.368,0.00802928768098354,0,
00:00:01.372,-0.000981705146841705,0,
00:00:01.376,-0.00493647623807192,0,
00:00:01.38,-0.00180907209869474,0,
00:00:01.384,0.00771236978471279,0,
00:00:01.388,0.000866218120791018,0,
00:00:01.392,-0.00904406793415546,0,
00:00:01.396,0.000681934645399451,0,
00:00:01.4,0.00733740115538239,0,
00:00:01.404,0.000356073025614023,0,
00:00:01.408,-0.00690848054364324,0,
00:00:01.412,-0.00292848865501583,0,
00:00:01.416,0.00603765109553933,0,
00:00:01.42,0.00400566356256604,0,
00:00:01.424,-0.00429653143510222,0,
00:00:01.428,-0.00276572280563414,0,
00:00:01.432,0.00251136720180511,0,
00:00:01.436,0.00634889444336295,0,
00:00:01.44,-0.00359749863855541,0,
00:00:01.444,-0.00843009538948536,0,
00:00:01.448,0.00229770666919649,0,
00:00:01.452,0.00827906746417284,0,
00:00:01.456,-0.001698526320979,0,
00:00:01.46,-0.00751650286838412,0,
00:00:01.464,0.00220998469740152,0,
00:00:01.468,0.00557262171059847,0,
00:00:01.472,-0.000388717890018597,0,
00:00:01.476,-0.00418930407613516,0,
00:00:01.48,0.000355375523213297,0,
00:00:01.484,0.003254234790802,0,
00:00:01.488,0.000708960404153913,0,
00:00:01.492,-0.00786322262138128,0,
00:00:01.496,0.00169294897932559,0,
00:00:01.5,0.00562171824276447,0,
00:00:01.504,0.00215159449726343,0,
00:00:01.508,-0.00566240027546883,0,
00:00:01.512,-0.00515853939577937,0,
00:00:01.516,0.00703276321291924,0,
00:00:01.52,0.00466253003105521,0,
00:00:01.524,-0.00254119909368455,0,
00:00:01.528,-0.00553498510271311,0,
00:00:01.532,0.000216138767427765,0,
00:00:01.536,0.00595891382545233,0,
00:00:01.54,-0.00464271940290928,0,
00:00:01.544,-0.00298095983453095,0,
00:00:01.548,0.00500296335667372,0,
00:00:01.552,0.0030178907327354,0,
00:00:01.556,-0.00267783994786441,0,
00:00:01.56,-0.00673652859404683,0,
00:00:01.564,0.00321436044760048,0,
00:00:01.568,0.00611997582018375,0,
00:00:01.572,0.00169765448663384,0,
00:00:01.576,-0.00854366179555655,0,
00:00:01.58,0.00034397401032038,0,
00:00:01.584,0.00450794026255608,0,
00:00:01.588,0.00169206399004906,0,
00:00:01.592,-0.0075940303504467,0,
00:00:01.596,0.00141614500898868,0,
00:00:01.6,0.0051630511879921,0,
00:00:01.604,0.00180304737295955,0,
00:00:01.608,-0.00578362541273236,0,
00:00:01.612,-0.00301155750639737,0,
00:00:01.616,0.00521424179896712,0,
00:00:01.62,0.00316158425994217,0,
00:00:01.624,-0.00264633423648775,0,
00:00:01.628,-0.00676730321720243,0,
00:00:01.632,0.00525368517264724,0,
00:00:01.636,0.00413238862529397,0,
00:00:01.64,-0.00200637662783265,0,
00:00:01.644,-0.00671900948509574,0,
00:00:01.648,0.00492834765464067,0,
00:00:01.652,0.00374991376884282,0,
00:00:01.656,-0.0022371169179678,0,
00:00:01.66,-0.00674813659861684,0,
00:00:01.664,0.00296145491302013,0,
00:00:01.668,0.00587175041437149,0,
00:00:01.672,0.00158787216059864,0,
00:00:01.676,-0.00850771740078926,0,
00:00:01.68,0.000458880327641964,0,
00:00:01.684,0.00462389923632145,0,
00:00:01.688,0.00176054239273071,0,
00:00:01.692,-0.00550637720152736,0,
00:00:01.696,-0.00266115972772241,0,
00:00:01.7,0.00545910187065601,0,
00:00:01.704,0.00324032362550497,0,
00:00:01.708,-0.00477414764463902,0,
00:00:01.712,-0.00282235909253359,0,
00:00:01.716,0.00482815178111196,0,
00:00:01.72,0.00262285023927689,0,
00:00:01.724,-0.00302367121912539,0,
00:00:01.728,-0.00687501206994057,0,
00:00:01.732,0.00535734230652452,0,
00:00:01.736,0.00431879330426455,0,
00:00:01.74,-0.00185004796367139,0,
00:00:01.744,-0.00664681568741798,0,
00:00:01.748,0.00492050591856241,0,
00:00:01.752,0.00369865773245692,0,
00:00:01.756,-0.000215985346585512,0,
00:00:01.76,-0.00875664036720991,0,
00:00:01.764,0.00131302257068455,0,
00:00:01.768,0.0077825072221458,0,
00:00:01.772,-0.00160288240294904,0,
00:00:01.776,-0.00505770510062575,0,
00:00:01.78,0.000584213121328503,0,
00:00:01.784,0.00408138381317258,0,
00:00:01.788,-0.000613551994320005,0,
00:00:01.792,-0.00349915726110339,0,
00:00:01.796,-0.000845336762722582,0,
00:00:01.8,0.00577138736844063,0,
00:00:01.804,0.00241880328394473,0,
00:00:01.808,-0.00587564893066883,0,
00:00:01.812,-0.00356036867015064,0,
00:00:01.816,0.00466123409569263,0,
00:00:01.82,0.00496229156851768,0,
00:00:01.824,-0.00665966607630253,0,
00:00:01.828,-0.00413467735052109,0,
00:00:01.832,0.00291356677189469,0,
00:00:01.836,0.00564331840723753,0,
00:00:01.84,-0.000316168123390526,0,
00:00:01.844,-0.0061414921656251,0,
00:00:01.848,0.00241290940903127,0,
00:00:01.852,0.0069602862931788,0,
00:00:01.856,-0.00532926246523857,0,
00:00:01.86,-0.00235709873959422,0,
00:00:01.864,-0.00233931606635451,0,
00:00:01.868,0.00691774394363165,0,
00:00:01.872,-0.00134575646370649,0,
00:00:01.876,-0.00456295302137733,0,
00:00:01.88,-0.00114737299736589,0,
00:00:01.884,0.00824136193841696,0,
00:00:01.888,0.00107129360549152,0,
00:00:01.892,-0.00912972912192345,0,
00:00:01.896,-0.00162024644669145,0,
00:00:01.9,0.00702175544574857,0,
00:00:01.904,0.00385560118593276,0,
00:00:01.908,-0.00510031124576926,0,
00:00:01.912,-0.00561384623870254,0,
00:00:01.916,0.00621379353106022,0,
00:00:01.92,0.00611472968012095,0,
00:00:01.924,-0.00679153995588422,0,
00:00:01.928,-0.00504216318950057,0,
00:00:01.932,0.00199483265168965,0,
00:00:01.936,0.00517784478142858,0,
00:00:01.94,-0.000270218413788825,0,
00:00:01.944,-0.00578942243009806,0,
00:00:01.948,0.00280623254366219,0,
00:00:01.952,0.0072147767059505,0,
00:00:01.956,-0.00318717933259904,0,
00:00:01.96,-0.00855549238622189,0,
00:00:01.964,0.00399957736954093,0,
00:00:01.968,0.00390003528445959,0,
00:00:01.972,0.000575317884795368,0,
00:00:01.976,-0.00797586794942617,0,
00:00:01.98,0.00173377513419837,0,
00:00:01.984,0.00572320958599448,0,
00:00:01.988,0.00221375515684485,0,
00:00:01.992,-0.00567521853372455,0,
00:00:01.996,-0.00314946821890771,0,
00:00:02,0.00497967610135674,0,
00:00:02.004,0.00296584237366915,0,
00:00:02.008,-0.00481323292478919,0,
00:00:02.012,-0.00270770699717104,0,
00:00:02.016,0.0049833576194942,0,
00:00:02.02,0.00273517053574324,0,
00:00:02.024,-0.00506037613376975,0,
00:00:02.028,-0.0028443958144635,0,
00:00:02.032,0.00497757690027356,0,
00:00:02.036,0.00281208218075335,0,
00:00:02.04,-0.00289081106893718,0,
00:00:02.044,-0.00683156820014119,0,
00:00:02.048,0.00533001916483045,0,
00:00:02.052,0.00426184665411711,0,
00:00:02.056,-0.00189987651538104,0,
00:00:02.06,-0.00459531974047422,0,
00:00:02.064,0.000870473741088063,0,
00:00:02.068,0.00404736679047346,0,
00:00:02.072,-0.000809565768577158,0,
00:00:02.076,-0.00367492437362671,0,
00:00:02.08,-0.000908673042431474,0,
00:00:02.084,0.00789226591587067,0,
00:00:02.088,0.000540794979315251,0,
00:00:02.092,-0.00742782652378082,0,
00:00:02.096,-0.00368893216364086,0,
00:00:02.1,0.00550795532763004,0,
00:00:02.104,0.00389053020626307,0,
00:00:02.108,-0.00408339779824018,0,
00:00:02.112,-0.00243140943348408,0,
00:00:02.116,0.00485907262191176,0,
00:00:02.12,0.00242099398747087,0,
00:00:02.124,-0.0032791665289551,0,
00:00:02.128,-0.00705387815833092,0,
00:00:02.132,0.00529950996860862,0,
00:00:02.136,0.00435643317177892,0,
00:00:02.14,-0.0017727401573211,0,
00:00:02.144,-0.00657948013395071,0,
00:00:02.148,0.00495311757549644,0,
00:00:02.152,0.00369697366841137,0,
00:00:02.156,-0.00231277220882475,0,
00:00:02.16,-0.00472881691530347,0,
00:00:02.164,0.000965136627200991,0,
00:00:02.168,0.00423846300691366,0,
00:00:02.172,0.00143322313670069,0,
00:00:02.176,-0.00764423795044422,0,
00:00:02.18,0.00149738404434174,0,
00:00:02.184,0.00733067048713565,0,
00:00:02.188,-0.00221475749276578,0,
00:00:02.192,-0.00755689106881619,0,
00:00:02.196,0.0024413641076535,0,
00:00:02.2,0.00584193039685488,0,
00:00:02.204,0.0018489375943318,0,
00:00:02.208,-0.0061426917091012,0,
00:00:02.212,-0.00343540636822581,0,
00:00:02.216,0.00495386589318514,0,
00:00:02.22,0.00312187988311052,0,
00:00:02.224,-0.0046082423068583,0,
00:00:02.228,-0.0025577349588275,0,
00:00:02.232,0.00296271895058453,0,
00:00:02.236,0.00676285428926349,0,
00:00:02.24,-0.00337705435231328,0,
00:00:02.244,-0.00841519609093666,0,
00:00:02.248,0.00426245993003249,0,
00:00:02.252,0.00409107049927115,0,
00:00:02.256,-0.00145854346919805,0,
00:00:02.26,-0.00400353036820889,0,
00:00:02.264,-0.000798973254859447,0,
00:00:02.268,0.00820865482091904,0,
00:00:02.272,-0.0012605955125764,0,
00:00:02.276,-0.00534406211227179,0,
00:00:02.28,-0.00209701363928616,0,
00:00:02.284,0.00763140339404345,0,
00:00:02.288,-0.00112727354280651,0,
00:00:02.292,-0.00484690954908729,0,
00:00:02.296,-0.00160493678413332,0,
00:00:02.3,0.00582827161997557,0,
00:00:02.304,0.00294745666906238,0,
00:00:02.308,-0.00531439436599612,0,
00:00:02.312,-0.003239830955863,0,
00:00:02.316,0.00469026016071439,0,
00:00:02.32,0.00272514158859849,0,
00:00:02.324,-0.00281567801721394,0,
00:00:02.328,-0.00461449753493071,0,
00:00:02.332,0.00139976525679231,0,
00:00:02.336,0.00672846008092165,0,
00:00:02.34,-0.00449000019580126,0,
00:00:02.344,-0.0032805644441396,0,
00:00:02.348,0.00247846194542944,0,
00:00:02.352,0.00671980157494545,0,
00:00:02.356,-0.00523026660084724,0,
00:00:02.36,-0.00411261199042201,0,
00:00:02.364,0.00198869267478585,0,
00:00:02.368,0.00459516048431396,0,
00:00:02.372,0.00114503083750606,0,
00:00:02.376,-0.00609602127224207,0,
00:00:02.38,-0.00295927631668746,0,
00:00:02.384,0.00545662268996239,0,
00:00:02.388,0.00340400193817914,0,
00:00:02.392,-0.00666569732129574,0,
00:00:02.396,-0.000733803783077747,0,
00:00:02.4,0.00649122195318341,0,
00:00:02.404,0.00275700655765831,0,
00:00:02.408,-0.00392863573506474,0,
00:00:02.412,-0.00587381329387426,0,
00:00:02.416,0.00273357867263258,0,
00:00:02.42,0.00260188849642873,0,
00:00:02.424,-0.003783552441746,0,
00:00:02.428,-0.00132688181474805,0,
00:00:02.432,0.00385059718973935,0,
00:00:02.436,0.00702835526317358,0,
00:00:02.44,-0.00361401215195656,0,
00:00:02.444,-0.00885694287717342,0,
00:00:02.448,0.00180905521847308,0,
00:00:02.452,0.0079618850722909,0,
00:00:02.456,-0.00178005790803581,0,
00:00:02.46,-0.00742546282708645,0,
00:00:02.464,0.0023628044873476,0,
00:00:02.468,0.00777173368260264,0,
00:00:02.472,-0.0023108993191272,0,
00:00:02.476,-0.00584206031635404,0,
00:00:02.48,-0.00194088602438569,0,
00:00:02.484,0.00810415484011173,0,
00:00:02.488,-0.000697794079314917,0,
00:00:02.492,-0.00465013552457094,0,
00:00:02.496,-0.00164353509899229,0,
00:00:02.5,0.00566058186814189,0,
00:00:02.504,0.00277246115729213,0,
00:00:02.508,-0.00542011810466647,0,
00:00:02.512,-0.00326021504588425,0,
00:00:02.516,0.00265260366722941,0,
00:00:02.52,0.00475642085075378,0,
00:00:02.524,-0.00113125704228878,0,
00:00:02.528,-0.00649697845801711,0,
00:00:02.532,0.0046021519228816,0,
00:00:02.536,0.00535113830119371,0,
00:00:02.54,-0.00660102441906929,0,
00:00:02.544,-0.00439026160165668,0,
00:00:02.548,0.00259405327960849,0,
00:00:02.552,0.0075300196185708,0,
00:00:02.556,-0.00229802425019443,0,
00:00:02.56,-0.00766502087935805,0,
00:00:02.564,0.00238479976542294,0,
00:00:02.568,0.00790959410369396,0,
00:00:02.572,-0.00218825065530837,0,
00:00:02.576,-0.00579598173499107,0,
00:00:02.58,-0.00196742033585906,0,
00:00:02.584,0.00804274715483189,0,
00:00:02.588,-0.00075480795931071,0,
00:00:02.592,-0.00468065170571208,0,
00:00:02.596,-0.00164559029508382,0,
00:00:02.6,0.00567605206742883,0,
00:00:02.604,0.00279156630858779,0,
00:00:02.608,-0.00540706608444452,0,
00:00:02.612,-0.00325629115104675,0,
00:00:02.616,0.00472529325634241,0,
00:00:02.62,0.0027752376627177,0,
00:00:02.624,-0.0048540411517024,0,
00:00:02.628,-0.0026252178940922,0,
00:00:02.632,0.00511184800416231,0,
00:00:02.636,0.0028396116103977,0,
00:00:02.64,-0.00293739465996623,0,
00:00:02.644,-0.00482571590691805,0,
00:00:02.648,0.00122533331159502,0,
00:00:02.652,0.00664986437186599,0,
00:00:02.656,-0.00240318733267486,0,
00:00:02.66,-0.00727297971025109,0,
00:00:02.664,0.00287310872226954,0,
00:00:02.668,0.00822140369564295,0,
00:00:02.672,-0.00212830631062388,0,
00:00:02.676,-0.00591702898964286,0,
00:00:02.68,-0.00214610691182315,0,
00:00:02.684,0.00582973333075643,0,
00:00:02.688,0.00324168219231069,0,
00:00:02.692,-0.00499691534787416,0,
00:00:02.696,-0.00305900350213051,0,
00:00:02.7,0.00470595899969339,0,
00:00:02.704,0.00263391830958426,0,
00:00:02.708,-0.00500755244866014,0,
00:00:02.712,-0.00272049685008824,0,
00:00:02.716,0.00509138638153672,0,
00:00:02.72,0.00287167681381106,0,
00:00:02.724,-0.00496414164081216,0,
00:00:02.728,-0.00281247589737177,0,
00:00:02.732,0.00288252206519246,0,
00:00:02.736,0.0068222344852984,0,
00:00:02.74,-0.0032601694110781,0,
00:00:02.744,-0.00831433944404125,0,
00:00:02.748,0.00223501841537654,0,
00:00:02.752,0.00813906919211149,0,
00:00:02.756,-0.00182368629612029,0,
00:00:02.76,-0.0055035469122231,0,
00:00:02.764,-0.00184057315345854,0,
00:00:02.768,0.00801900960505009,0,
00:00:02.772,0.00121953035704792,0,
00:00:02.776,-0.00883508566766977,0,
00:00:02.78,0.000703362748026848,0,
00:00:02.784,0.00515668094158173,0,
00:00:02.788,0.000118182448204607,0,
00:00:02.792,-0.00339010776951909,0,
00:00:02.796,-0.00114399241283536,0,
00:00:02.8,0.00538971927016974,0,
00:00:02.804,0.00217602518387139,0,
00:00:02.808,-0.00591804319992661,0,
00:00:02.812,-0.00345936883240938,0,
00:00:02.816,0.00480650132521987,0,
00:00:02.82,0.0029968551825732,0,
00:00:02.824,-0.00256547913886607,0,
00:00:02.828,-0.00655834889039397,0,
00:00:02.832,0.00545758986845613,0,
00:00:02.836,0.00425017205998302,0,
00:00:02.84,-0.00198781071230769,0,
00:00:02.844,-0.00676588341593742,0,
00:00:02.848,0.00486344518139958,0,
00:00:02.852,0.00370231666602194,0,
00:00:02.856,-0.00225419900380075,0,
00:00:02.86,-0.00466429395601153,0,
00:00:02.864,0.00100541429128498,0,
00:00:02.868,0.00424725655466318,0,
00:00:02.872,-0.000655954296234995,0,
00:00:02.876,-0.00361375650390983,0,
00:00:02.88,-0.000927663524635136,0,
00:00:02.884,0.00783457700163126,0,
00:00:02.888,-0.00159054424148053,0,
00:00:02.892,-0.00548297539353371,0,
00:00:02.896,-0.00204961537383497,0,
00:00:02.9,0.00777543615549803,0,
00:00:02.904,0.00109100167173892,0,
00:00:02.908,-0.00674024457111955,0,
00:00:02.912,-0.00323502742685378,0,
00:00:02.916,0.00354146095924079,0,
00:00:02.92,0.0057192575186491,0,
00:00:02.924,-0.000602528685703874,0,
00:00:02.928,-0.00441933237016201,0,
00:00:02.932,0.000217384702409618,0,
00:00:02.936,0.0032086344435811,0,
00:00:02.94,-0.00135790626518428,0,
00:00:02.944,-0.00586333451792598,0,
00:00:02.948,0.00542716542258859,0,
00:00:02.952,0.00382475019432604,0,
00:00:02.956,-0.00241841492243111,0,
00:00:02.96,-0.00490394001826644,0,
00:00:02.964,0.000838540494441986,0,
00:00:02.968,0.004202198702842,0,
00:00:02.972,-0.000606789311859757,0,
00:00:02.976,-0.00352907227352262,0,
00:00:02.98,-0.00085802935063839,0,
00:00:02.984,0.00786564778536558,0,
00:00:02.988,-0.0015953651163727,0,
00:00:02.992,-0.00550674227997661,0,
00:00:02.996,1.50141966059891E-06,0,
00:00:03,0.00370972324162722,0,
00:00:03.004,-0.000653963594231755,0,
00:00:03.008,-0.00329422485083342,0,
00:00:03.012,-0.00056519458303228,0,
00:00:03.016,0.00598510866984725,0,
00:00:03.02,0.00250629498623312,0,
00:00:03.024,-0.00382207054644823,0,
00:00:03.028,-0.00768775539472699,0,
00:00:03.032,0.00491945771500468,0,
00:00:03.036,0.00430937949568033,0,
00:00:03.04,-0.00159363041166216,0,
00:00:03.044,-0.00426404876634479,0,
00:00:03.048,0.00107626290991902,0,
00:00:03.052,0.00616791378706694,0,
00:00:03.056,-0.00492911413311958,0,
00:00:03.06,-0.00344690447673202,0,
00:00:03.064,0.00255048973485827,0,
00:00:03.068,0.00482815876603127,0,
00:00:03.072,0.00106881419196725,0,
00:00:03.076,-0.00840514525771141,0,
00:00:03.08,-0.00121322914492339,0,
00:00:03.084,0.00904425140470266,0,
00:00:03.088,-0.000487016106490046,0,
00:00:03.092,-0.00504297902807593,0,
00:00:03.096,-0.00219669030047953,0,
00:00:03.1,0.00529216323047876,0,
00:00:03.104,0.00477723591029644,0,
00:00:03.108,-0.00724342046305537,0,
00:00:03.112,-0.00467550940811634,0,
00:00:03.116,0.00472878338769078,0,
00:00:03.12,0.00369797134771943,0,
00:00:03.124,-0.00383898732252419,0,
00:00:03.128,-0.00205584964714944,0,
00:00:03.132,0.00513015175238252,0,
00:00:03.136,0.0025011629331857,0,
00:00:03.14,-0.00335254915989935,0,
00:00:03.144,-0.00718919979408383,0,
00:00:03.148,0.00518450420349836,0,
00:00:03.152,0.00637789536267519,0,
00:00:03.156,-0.0037437288556248,0,
00:00:03.16,-0.00818477012217045,0,
00:00:03.164,0.00274024554528296,0,
00:00:03.168,0.00861549004912376,0,
00:00:03.172,-0.00161325396038592,0,
00:00:03.176,-0.00764749385416508,0,
00:00:03.18,0.00198956648819149,0,
00:00:03.184,0.00538479536771774,0,
00:00:03.188,0.00159456196706742,0,
00:00:03.192,-0.00616338290274143,0,
00:00:03.196,-0.00330747291445732,0,
00:00:03.2,0.00511519564315677,0,
00:00:03.204,0.00323402765206993,0,
00:00:03.208,-0.00457282969728112,0,
00:00:03.212,-0.00465814350172877,0,
00:00:03.216,0.00696465559303761,0,
00:00:03.22,0.00638716388493776,0,
00:00:03.224,-0.006938093341887,0,
00:00:03.228,-0.00745825050398707,0,
00:00:03.232,0.00573306018486619,0,
00:00:03.236,0.00467990385368466,0,
00:00:03.24,-0.00174323818646371,0,
00:00:03.244,-0.00464655691757798,0,
00:00:03.248,0.000751057697925717,0,
00:00:03.252,0.00396463321521878,0,
00:00:03.256,-0.000819814042188227,0,
00:00:03.26,-0.00363022857345641,0,
00:00:03.264,0.00122852774802595,0,
00:00:03.268,0.00388753251172602,0,
00:00:03.272,-0.00118352519348264,0,
00:00:03.276,-0.00399348884820938,0,
00:00:03.28,0.00103110470809042,0,
00:00:03.284,0.00387775036506355,0,
00:00:03.288,-0.00107628747355193,0,
00:00:03.292,-0.00386244454421103,0,
00:00:03.296,-0.000955410825554281,0,
00:00:03.3,0.00795554183423519,0,
00:00:03.304,-0.00143089087214321,0,
00:00:03.308,-0.00536769581958652,0,
00:00:03.312,-0.00200922321528196,0,
00:00:03.316,0.00567906489595771,0,
00:00:03.32,0.00301892822608352,0,
00:00:03.324,-0.00514093833044171,0,
00:00:03.328,-0.00307966815307736,0,
00:00:03.332,0.00477443728595972,0,
00:00:03.336,0.00480467267334461,0,
00:00:03.34,-0.00691165728494525,0,
00:00:03.344,-0.00433527817949653,0,
00:00:03.348,0.0028285370208323,0,
00:00:03.352,0.00566219445317984,0,
00:00:03.356,-0.000244671391556039,0,
00:00:03.36,-0.0060699200257659,0,
00:00:03.364,0.00452958280220628,0,
00:00:03.368,0.0029145844746381,0,
00:00:03.372,-0.0029378707986325,0,
00:00:03.376,-0.0070425420999527,0,
00:00:03.38,0.00304794940166175,0,
00:00:03.384,0.00615285616368055,0,
00:00:03.388,0.00186630408279598,0,
00:00:03.392,-0.00627289060503244,0,
00:00:03.396,-0.00357068493030965,0,
00:00:03.4,0.00696498574689031,0,
00:00:03.404,-0.000916678109206259,0,
00:00:03.408,-0.00421887869015336,0,
00:00:03.412,-0.00103373173624277,0,
00:00:03.416,0.00609416048973799,0,
00:00:03.42,0.00290372944436967,0,
00:00:03.424,-0.00552944140508771,0,
00:00:03.428,-0.00346696982160211,0,
00:00:03.432,0.00455183302983642,0,
00:00:03.436,0.00269742705859244,0,
00:00:03.44,-0.00276690092869103,0,
00:00:03.444,-0.00661771930754185,0,
00:00:03.448,0.00343042146414518,0,
00:00:03.452,0.00839202664792538,0,
00:00:03.456,-0.0022446564398706,0,
00:00:03.46,-0.00611983379349113,0,
00:00:03.464,-0.000211343518458307,0,
00:00:03.468,0.00382557092234492,0,
00:00:03.472,-0.000418855168391019,0,
00:00:03.476,-0.00311180274002254,0,
00:00:03.48,-0.000505870033521205,0,
00:00:03.484,0.00801512971520424,0,
00:00:03.488,-0.00163602770771831,0,
00:00:03.492,-0.00564475171267986,0,
00:00:03.496,-0.0022114971652627,0,
00:00:03.5,0.00560665223747492,0,
00:00:03.504,0.00305337621830404,0,
00:00:03.508,-0.00505879102274776,0,
00:00:03.512,-0.00300486641936004,0,
00:00:03.516,0.00481285201385617,0,
00:00:03.52,0.00272955070249736,0,
00:00:03.524,-0.00495802657678723,0,
00:00:03.528,-0.00271867425180972,0,
00:00:03.532,0.00506465462967753,0,
00:00:03.536,0.00283972104080021,0,
00:00:03.54,-0.00498546147719026,0,
00:00:03.544,-0.00281844707205892,0,
00:00:03.548,0.00496385339647532,0,
00:00:03.552,0.00278102746233344,0,
00:00:03.556,-0.004994488786906,0,
00:00:03.56,-0.000718790222890675,0,
00:00:03.564,-0.00113014411181211,0,
00:00:03.568,0.00718946009874344,0,
00:00:03.572,-0.00177841435652226,0,
00:00:03.576,-0.00521928025409579,0,
00:00:03.58,-0.00164154940284789,0,
00:00:03.584,0.00806359853595495,0,
00:00:03.588,-0.000915013370104134,0,
00:00:03.592,-0.00486818561330438,0,
00:00:03.596,-0.00176126579754055,0,
00:00:03.6,0.00565640348941088,0,
00:00:03.604,0.00283872964791954,0,
00:00:03.608,-0.00534008303657174,0,
00:00:03.612,-0.00320608983747661,0,
00:00:03.616,0.0047442470677197,0,
00:00:03.62,0.00276780198328197,0,
00:00:03.624,-0.00279794214293361,0,
00:00:03.628,-0.00669472012668848,0,
00:00:03.632,0.00543537177145481,0,
00:00:03.636,0.0043041012249887,0,
00:00:03.64,-0.00398829346522689,0,
00:00:03.644,-0.00265929475426674,0,
00:00:03.648,0.00455026375129819,0,
00:00:03.652,0.00222810124978423,0,
00:00:03.656,-0.00537213683128357,0,
00:00:03.66,-0.00289433775469661,0,
00:00:03.664,0.00303397234529257,0,
00:00:03.668,0.00704875076189637,0,
00:00:03.672,-0.00308543955907226,0,
00:00:03.676,-0.00824433844536543,0,
00:00:03.68,0.00221388577483594,0,
00:00:03.684,0.00599796231836081,0,
00:00:03.688,0.00216428539715707,0,
00:00:03.692,-0.00794735737144947,0,
00:00:03.696,0.000742282427381724,0,
00:00:03.7,0.00460674520581961,0,
00:00:03.704,0.00156598375178874,0,
00:00:03.708,-0.00780113972723484,0,
00:00:03.712,-0.000826805015094578,0,
00:00:03.716,0.00706573436036706,0,
00:00:03.72,0.00553451897576451,0,
00:00:03.724,-0.00752369407564402,0,
00:00:03.728,-0.00543704768642783,0,
00:00:03.732,0.00196825922466815,0,
00:00:03.736,0.00743002071976662,0,
00:00:03.74,-0.00412361277267337,0,
00:00:03.744,-0.00326905539259315,0,
00:00:03.748,0.00230129854753613,0,
00:00:03.752,0.0065299984999001,0,
00:00:03.756,-0.00533200241625309,0,
00:00:03.76,-0.00411156611517072,0,
00:00:03.764,0.00205303076654673,0,
00:00:03.768,0.00674619479104877,0,
00:00:03.772,-0.00493198307231069,0,
00:00:03.776,-0.00377366808243096,0,
00:00:03.78,0.00221028202213347,0,
00:00:03.784,0.00465471390634775,0,
00:00:03.788,0.00108482537325472,0,
00:00:03.792,-0.00620028283447027,0,
00:00:03.796,-0.00304454169236124,0,
00:00:03.8,0.00541904382407665,0,
00:00:03.804,0.00341041572391987,0,
00:00:03.808,-0.00456055300310254,0,
00:00:03.812,-0.00267896475270391,0,
00:00:03.816,0.0048668454401195,0,
00:00:03.82,0.00258273677900434,0,
00:00:03.824,-0.0051688146777451,0,
00:00:03.828,-0.00288071949034929,0,
00:00:03.832,0.00499896518886089,0,
00:00:03.836,0.00285801966674626,0,
00:00:03.84,-0.00285024731419981,0,
00:00:03.844,-0.00681156665086746,0,
00:00:03.848,0.00325362756848335,0,
00:00:03.852,0.00830054748803377,0,
00:00:03.856,-0.00224712467752397,0,
00:00:03.86,-0.00814498867839575,0,
00:00:03.864,0.0018239279743284,0,
00:00:03.868,0.0075830677524209,0,
00:00:03.872,-0.000130568703752942,0,
00:00:03.876,-0.00758263096213341,0,
00:00:03.88,-0.00337128387764096,0,
00:00:03.884,0.00595915457233787,0,
00:00:03.888,0.00419700471684337,0,
00:00:03.892,-0.00401770416647196,0,
00:00:03.896,-0.00255009415559471,0,
00:00:03.9,0.00675112893804908,0,
00:00:03.904,-0.00177681085187942,0,
00:00:03.908,-0.00508530577644706,0,
00:00:03.912,-0.00152605841867626,0,
00:00:03.916,0.00603661220520735,0,
00:00:03.92,0.00312794395722449,0,
00:00:03.924,-0.00523529388010502,0,
00:00:03.928,-0.003257593838498,0,
00:00:03.932,0.00254619470797479,0,
00:00:03.936,0.00670720869675279,0,
00:00:03.94,-0.00526469619944692,0,
00:00:03.944,-0.00410997308790684,0,
00:00:03.948,0.00203873869031668,0,
00:00:03.952,0.00466753263026476,0,
00:00:03.956,-0.000868077273480594,0,
00:00:03.96,-0.00408680597320199,0,
00:00:03.964,0.000762581417802721,0,
00:00:03.968,0.00364368665032089,0,
00:00:03.972,-0.00117573339957744,0,
00:00:03.976,-0.0038328692317009,0,
00:00:03.98,-0.00085945229511708,0,
00:00:03.984,0.00805064290761948,0,
00:00:03.988,-0.00137658591847867,0,
00:00:03.992,-0.00536042591556907,0,
00:00:03.996,4.32053639087826E-05,0,
00:00:04,0.00367248733527958,0,
00:00:04.004,-0.000721372256521136,0,
00:00:04.008,-0.00335036008618772,0,
00:00:04.012,0.00148512399755418,0,
00:00:04.016,0.00401318026706576,0,
00:00:04.02,0.000883052998688072,0,
00:00:04.024,-0.00605515856295824,0,
00:00:04.028,-0.00278212083503604,0,
00:00:04.032,0.00354012032039464,0,
00:00:04.036,0.00544577604159713,0,
00:00:04.04,-0.000896098150406033,0,
00:00:04.044,-0.00457767210900784,0,
00:00:04.048,0.000219927824218757,0,
00:00:04.052,0.00331178354099393,0,
00:00:04.056,-0.00123653397895396,0,
00:00:04.06,-0.00370607478544116,0,
00:00:04.064,0.00139979750383645,0,
00:00:04.068,0.00413796259090304,0,
00:00:04.072,-0.000990458996966481,0,
00:00:04.076,-0.00391525588929653,0,
00:00:04.08,0.00100916426163167,0,
00:00:04.084,0.00588258495554328,0,
00:00:04.088,-0.00312073528766632,0,
00:00:04.092,-0.00554288597777486,0,
00:00:04.096,-0.00113641156349331,0,
00:00:04.1,0.00674035726115108,0,
00:00:04.104,0.00367078627459705,0,
00:00:04.108,-0.00505435699597001,0,
00:00:04.112,-0.00338743254542351,0,
00:00:04.116,0.0043548378162086,0,
00:00:04.12,0.00241813040338457,0,
00:00:04.124,-0.00505229365080595,0,
00:00:04.128,-0.00264619290828705,0,
00:00:04.132,0.00520338863134384,0,
00:00:04.136,0.00295765791088343,0,
00:00:04.14,-0.00285449321381748,0,
00:00:04.144,-0.0068747098557651,0,
00:00:04.148,0.00318314740434289,0,
00:00:04.152,0.00825603026896715,0,
00:00:04.156,-0.00433313101530075,0,
00:00:04.16,-0.00407967437058687,0,
00:00:04.164,0.00151304365135729,0,
00:00:04.168,0.00405984278768301,0,
00:00:04.172,0.000832168210763484,0,
00:00:04.176,-0.00820323079824448,0,
00:00:04.18,0.00124745152425021,0,
00:00:04.184,0.00740148685872555,0,
00:00:04.188,-0.00196760683320463,0,
00:00:04.192,-0.00730300601571798,0,
00:00:04.196,0.000518763379659504,0,
00:00:04.2,0.00992325786501169,0,
00:00:04.204,-0.000614227436017245,0,
00:00:04.208,-0.0036366693675518,0,
00:00:04.212,-0.00484935706481338,0,
00:00:04.216,0.00120460928883404,0,
00:00:04.22,0.00448283879086375,0,
00:00:04.224,-0.000503019778989255,0,
00:00:04.228,-0.00355415046215057,0,
00:00:04.232,0.00114663934800774,0,
00:00:04.236,0.00583508796989918,0,
00:00:04.24,-0.00532865058630705,0,
00:00:04.244,-0.00369073380716145,0,
00:00:04.248,0.00251720799133182,0,
00:00:04.252,0.00701605994254351,0,
00:00:04.256,-0.00490527367219329,0,
00:00:04.26,-0.00390821462497115,0,
00:00:04.264,0.00203551445156336,0,
00:00:04.268,0.00452988967299461,0,
00:00:04.272,0.00104222795926034,0,
00:00:04.276,-0.00825244747102261,0,
00:00:04.28,0.00105873646680266,0,
00:00:04.284,0.00720803253352642,0,
00:00:04.288,-0.00208247452974319,0,
00:00:04.292,-0.00524739641696215,0,
00:00:04.296,0.000662949576508254,0,
00:00:04.3,0.00429243221879005,0,
00:00:04.304,0.00166425458155572,0,
00:00:04.308,-0.00536277098581195,0,
00:00:04.312,-0.00455166026949883,0,
00:00:04.316,0.00751776527613401,0,
00:00:04.32,0.00483688013628125,0,
00:00:04.324,-0.00471772020682693,0,
00:00:04.328,-0.00378756504505873,0,
00:00:04.332,0.0037252246402204,0,
00:00:04.336,0.00197523809038103,0,
00:00:04.34,-0.00308152777142823,0,
00:00:04.344,-0.00446085771545768,0,
00:00:04.348,0.00174444064032286,0,
00:00:04.352,0.00496647646650672,0,
00:00:04.356,-0.000275716505711898,0,
00:00:04.36,-0.00568385282531381,0,
00:00:04.364,0.00290019600652158,0,
00:00:04.368,0.00723634567111731,0,
00:00:04.372,-0.00323273288086057,0,
00:00:04.376,-0.0086289094761014,0,
00:00:04.38,0.00186181312892586,0,
00:00:04.384,0.00792090501636267,0,
00:00:04.388,-0.00183295493479818,0,
00:00:04.392,-0.00537130748853087,0,
00:00:04.396,-0.00167418096680194,0,
00:00:04.4,0.00606198608875275,0,
00:00:04.404,0.00323634361848235,0,
00:00:04.408,-0.00513821793720126,0,
00:00:04.412,-0.00321903428994119,0,
00:00:04.416,0.0046036415733397,0,
00:00:04.42,0.00260921660810709,0,
00:00:04.424,-0.00497631262987852,0,
00:00:04.428,-0.00474577397108078,0,
00:00:04.432,0.00710676703602076,0,
00:00:04.436,0.00453045545145869,0,
00:00:04.44,-0.00271541904658079,0,
00:00:04.444,-0.0077208336442709,0,
00:00:04.448,0.00217378884553909,0,
00:00:04.452,0.00764855369925499,0,
00:00:04.456,-0.00232303538359702,0,
00:00:04.46,-0.00574904680252075,0,
00:00:04.464,-0.00179949752055109,0,
00:00:04.468,0.00822918862104416,0,
00:00:04.472,-0.000627707573585212,0,
00:00:04.476,-0.00463847629725933,0,
00:00:04.48,-0.00166952284052968,0,
00:00:04.484,0.00562424818053842,0,
00:00:04.488,0.00274579343385994,0,
00:00:04.492,-0.00542969489470124,0,
00:00:04.496,-0.00325572234578431,0,
00:00:04.5,0.00473914342001081,0,
00:00:04.504,0.00279088201932609,0,
00:00:04.508,-0.00484407972544432,0,
00:00:04.512,-0.00469864439219236,0,
00:00:04.516,0.00915984157472849,0,
00:00:04.52,0.00250136363320053,0,
00:00:04.524,-0.0064821015112102,0,
00:00:04.528,-0.00387179246172309,0,
00:00:04.532,0.00268289423547685,0,
00:00:04.536,0.00722540263086557,0,
00:00:04.54,-0.00477139512076974,0,
00:00:04.544,-0.00386606226675212,0,
00:00:04.548,0.00201726448722184,0,
00:00:04.552,0.00656783627346158,0,
00:00:04.556,-0.00511318724602461,0,
00:00:04.56,-0.00387666071765125,0,
00:00:04.564,0.00219820672646165,0,
00:00:04.568,0.00470137409865856,0,
00:00:04.572,-0.000929860514588654,0,
00:00:04.576,-0.00418163975700736,0,
00:00:04.58,-0.001388183911331,0,
00:00:04.584,0.00558727513998747,0,
00:00:04.588,0.00254912627860904,0,
00:00:04.592,-0.00560447527095675,0,
00:00:04.596,-0.00331749976612628,0,
00:00:04.6,0.00478549534454942,0,
00:00:04.604,0.00288875238038599,0,
00:00:04.608,-0.00475429510697722,0,
00:00:04.612,-0.00257480354048312,0,
00:00:04.616,0.00511229643598199,0,
00:00:04.62,0.00281077576801181,0,
00:00:04.624,-0.00504675647243857,0,
00:00:04.628,-0.00287236063741148,0,
00:00:04.632,0.00286160805262625,0,
00:00:04.636,0.00683306762948632,0,
00:00:04.64,-0.00531121715903282,0,
00:00:04.644,-0.00424100598320365,0,
00:00:04.648,0.00398873537778854,0,
00:00:04.652,0.00262291845865548,0,
00:00:04.656,-0.00459257140755653,0,
00:00:04.66,-0.00225572939962149,0,
00:00:04.664,0.00328916497528553,0,
00:00:04.668,0.00487749977037311,0,
00:00:04.672,0.000697109499014914,0,
00:00:04.676,-0.00676052365452051,0,
00:00:04.68,-0.00344579853117466,0,
00:00:04.684,0.00737203424796462,0,
00:00:04.688,-0.000540479726623744,0,
00:00:04.692,-0.00611182395368814,0,
00:00:04.696,0.000925277767237276,0,
00:00:04.7,0.00968257803469896,0,
00:00:04.704,-0.00111184443812817,0,
00:00:04.708,-0.00612726714462042,0,
00:00:04.712,-0.00304908864200115,0,
00:00:04.716,0.00497019477188587,0,
00:00:04.72,0.00284575996920466,0,
00:00:04.724,-0.00490368017926812,0,
00:00:04.728,-0.00269244820810854,0,
00:00:04.732,0.00508848810568452,0,
00:00:04.736,0.0028674597851932,0,
00:00:04.74,-0.00288339424878359,0,
00:00:04.744,-0.00477581657469273,0,
00:00:04.748,0.00125295482575893,0,
00:00:04.752,0.00665312586352229,0,
00:00:04.756,-0.0044912276789546,0,
00:00:04.76,-0.00323795597068965,0,
00:00:04.764,0.000452608335763216,0,
00:00:04.768,0.00665209768339992,0,
00:00:04.772,0.00254729762673378,0,
00:00:04.776,-0.0062533519230783,0,
00:00:04.78,-0.00405252352356911,0,
00:00:04.784,0.00640910025686026,0,
00:00:04.788,-0.00124229374341667,0,
00:00:04.792,-0.00424162903800607,0,
00:00:04.796,-0.000852117082104087,0,
00:00:04.8,0.00632650451734662,0,
00:00:04.804,0.00307024363428354,0,
00:00:04.808,-0.00547118438407779,0,
00:00:04.812,-0.00349644012749195,0,
00:00:04.816,0.00448386231437325,0,
00:00:04.82,0.00263612903654575,0,
00:00:04.824,-0.00487378565594554,0,
00:00:04.828,-0.00256673595868051,0,
00:00:04.832,0.00519095454365015,0,
00:00:04.836,0.00289681111462414,0,
00:00:04.84,-0.00291756633669138,0,
00:00:04.844,-0.00691203353926539,0,
00:00:04.848,0.00317688914947212,0,
00:00:04.852,0.00827061478048563,0,
00:00:04.856,-0.00431262794882059,0,
00:00:04.86,-0.00406451988965273,0,
00:00:04.864,0.00151856022421271,0,
00:00:04.868,0.00405735289677978,0,
00:00:04.872,-0.00124971475452185,0,
00:00:04.876,-0.00415772292762995,0,
00:00:04.88,0.000911278184503317,0,
00:00:04.884,0.00386063056066632,0,
00:00:04.888,-0.00101044808980078,0,
00:00:04.892,-0.00376817910000682,0,
00:00:04.896,-0.000881196348927915,0,
00:00:04.9,0.005911935120821,0,
00:00:04.904,0.00261451583355665,0,
00:00:04.908,-0.00365046365186572,0,
00:00:04.912,-0.00547541864216328,0,
00:00:04.916,0.00300210621207953,0,
00:00:04.92,0.00265459693036973,0,
00:00:04.924,-0.00389506435021758,0,
00:00:04.928,-0.00149473454803228,0,
00:00:04.932,0.00371803110465407,0,
00:00:04.936,0.00697176391258836,0,
00:00:04.94,-0.00567820575088263,0,
00:00:04.944,-0.00683527998626232,0,
00:00:04.948,0.00557363918051124,0,
00:00:04.952,0.00411477452144027,0,
00:00:04.956,-0.00228569307364523,0,
00:00:04.96,-0.00492364214733243,0,
00:00:04.964,0.00076137634459883,0,
00:00:04.968,0.00414607953280211,0,
00:00:04.972,-0.000612516712862998,0,
00:00:04.976,-0.0055710063315928,0,
00:00:04.98,0.00531498296186328,0,
00:00:04.984,0.00144054857082665,0,
00:00:04.988,0.00133811100386083,0,
00:00:04.992,-0.00747463246807456,0,
00:00:04.996,0.00133376789744943,0,
00:00:05,0.00490137515589595,0,
00:00:05.004,0.0015587821835652,0,
00:00:05.008,-0.00588220311328769,0,
00:00:05.012,-0.00295749749056995,0,
00:00:05.016,0.00534987170249224,0,
00:00:05.02,0.00329487468115985,0,
00:00:05.024,-0.00464360462501645,0,
00:00:05.028,-0.00270187063142657,0,
00:00:05.032,0.00281581352464855,0,
00:00:05.036,0.00460117170587182,0,
00:00:05.04,-0.0014152463991195,0,
00:00:05.044,-0.00673858728259802,0,
00:00:05.048,0.00448732497170568,0,
00:00:05.052,0.00328337750397623,0,
00:00:05.056,-0.002473657252267,0,
00:00:05.06,-0.00671590073034167,0,
00:00:05.064,0.00315618119202554,0,
00:00:05.068,0.00816339068114758,0,
00:00:05.072,-0.000247557851253077,0,
00:00:05.076,-0.0101126553490758,0,
00:00:05.08,-0.00390811031684279,0,
00:00:05.084,0.0135028921067715,0,
00:00:05.088,0.00206785113550723,0,
00:00:05.092,-0.0099051995202899,0,
00:00:05.096,-0.00056379399029538,0,
00:00:05.1,0.00239782221615314,0,
00:00:05.104,0.00415489356964827,0,
00:00:05.108,-0.00334534235298634,0,
00:00:05.112,-0.00217571412213147,0,
00:00:05.116,0.00463989051058888,0,
00:00:05.12,0.00204375898465514,0,
00:00:05.124,-0.00354532757773995,0,
00:00:05.128,-0.00918524246662855,0,
00:00:05.132,0.00738488417118788,0,
00:00:05.136,0.00824347883462906,0,
00:00:05.14,-0.00551130343228579,0,
00:00:05.144,-0.00702962093055248,0,
00:00:05.148,0.00330456136725843,0,
00:00:05.152,0.00601521087810397,0,
00:00:05.156,-0.000615070050116628,0,
00:00:05.16,-0.00675157038494945,0,
00:00:05.164,-0.000122540630400181,0,
00:00:05.168,0.0129863722249866,0,
00:00:05.172,-0.00535993231460452,0,
00:00:05.176,-0.0112706236541271,0,
00:00:05.18,0.00111391104292125,0,
00:00:05.184,0.00883280392736197,0,
00:00:05.188,-0.00452598091214895,0,
00:00:05.192,0.00172592210583389,0,
00:00:05.196,0.00202947715297341,0,
00:00:05.2,-0.00165024667512625,0,
00:00:05.204,-0.00102024432271719,0,
00:00:05.208,0.00023443104873877,0,
00:00:05.212,0.00910393707454205,0,
00:00:05.216,-0.00312208640389144,0,
00:00:05.22,-0.0103903142735362,0,
00:00:05.224,-0.00428927829489112,0,
00:00:05.228,0.00670893769711256,0,
00:00:05.232,0.00354490708559752,0,
00:00:05.236,0.00122016528621316,0,
00:00:05.24,-0.00444276258349419,0,
00:00:05.244,-0.00530601618811488,0,
00:00:05.248,0.0185595098882914,0,
00:00:05.252,0.00886462721973658,0,
00:00:05.256,-0.0195909980684519,0,
00:00:05.26,-0.0163270831108093,0,
00:00:05.264,0.00297865411266685,0,
00:00:05.268,0.00929746869951487,0,
00:00:05.272,0.00336363818496466,0,
00:00:05.276,0.00462559517472982,0,
00:00:05.28,0.0122382063418627,0,
00:00:05.284,-0.00695248646661639,0,
00:00:05.288,-0.0149232484400272,0,
00:00:05.292,-0.00672137690708041,0,
00:00:05.296,0.00251439167186618,0,
00:00:05.3,0.00884454511106014,0,
00:00:05.304,0.00604062108322978,0,
00:00:05.308,-0.00106374232564121,0,
00:00:05.312,0.00366363511420786,0,
00:00:05.316,-0.00565649475902319,0,
00:00:05.32,-0.00335587444715202,0,
00:00:05.324,-0.00175257644150406,0,
00:00:05.328,-0.00646902527660131,0,
00:00:05.332,0.00677785184234381,0,
00:00:05.336,0.00411109486594796,0,
00:00:05.34,0.00148585124406964,0,
00:00:05.344,-0.00252459687180817,0,
00:00:05.348,0.000643521489109844,0,
00:00:05.352,0.00451341085135937,0,
00:00:05.356,-0.00656566442921758,0,
00:00:05.36,-0.0105469534173608,0,
00:00:05.364,0.00638963514938951,0,
00:00:05.368,0.0226305983960629,0,
00:00:05.372,-0.00808798149228096,0,
00:00:05.376,-0.0144957192242146,0,
00:00:05.38,-0.00623405445367098,0,
00:00:05.384,0.00669560860842466,0,
00:00:05.388,0.00454114424064755,0,
00:00:05.392,-0.00184722675476223,0,
00:00:05.396,0.00429105246439576,0,
00:00:05.4,0.00656033772975206,0,
00:00:05.404,-0.00481148203834891,0,
00:00:05.408,-0.0100346971303225,0,
00:00:05.412,-0.000897942518349737,0,
00:00:05.416,0.00371073489077389,0,
00:00:05.42,0.0103400191292167,0,
00:00:05.424,0.00251017627306283,0,
00:00:05.428,-0.0129563799127936,0,
00:00:05.432,-0.00280337734147906,0,
00:00:05.436,0.00626825308427215,0,
00:00:05.44,-0.00284395390190184,0,
00:00:05.444,-0.00332722952589393,0,
00:00:05.448,0.00577193638309836,0,
00:00:05.452,0.00659749889746308,0,
00:00:05.456,0.000654749688692391,0,
00:00:05.46,-0.00793144758790731,0,
00:00:05.464,-0.00682321144267917,0,
00:00:05.468,0.00857805274426937,0,
00:00:05.472,0.00101245567202568,0,
00:00:05.476,-0.00556468265131116,0,
00:00:05.48,0.00472580268979073,0,
00:00:05.484,0.00506142666563392,0,
00:00:05.488,-0.00489924661815166,0,
00:00:05.492,-0.00662411795929074,0,
00:00:05.496,-0.00120748160406947,0,
00:00:05.5,0.00730272801592946,0,
00:00:05.504,0.00434183515608311,0,
00:00:05.508,-0.00462877983227372,0,
00:00:05.512,-0.00330223166383803,0,
00:00:05.516,0.00419654371216893,0,
00:00:05.52,0.00218158401548862,0,
00:00:05.524,-0.00523466616868973,0,
00:00:05.528,-0.00271917087957263,0,
00:00:05.532,0.00314977299422026,0,
00:00:05.536,0.00707702431827784,0,
00:00:05.54,-0.00312184891663492,0,
00:00:05.544,-0.00622767210006714,0,
00:00:05.548,0.00019140746735502,0,
00:00:05.552,0.0022602085955441,0,
00:00:05.556,0.00396713567897677,0,
00:00:05.56,-0.00544562935829163,0,
00:00:05.564,0.00403965823352337,0,
00:00:05.568,0.0024288990534842,0,
00:00:05.572,-0.0010207740124315,0,
00:00:05.576,-0.00891392584890127,0,
00:00:05.58,-0.000480211689136922,0,
00:00:05.584,0.00808800477534533,0,
00:00:05.588,0.0023085605353117,0,
00:00:05.592,-0.00521791400387883,0,
00:00:05.596,0.00805763155221939,0,
00:00:05.6,-0.00427993247285485,0,
00:00:05.604,-0.00516054127365351,0,
00:00:05.608,-0.00192373618483543,0,
00:00:05.612,-0.000921565690077841,0,
00:00:05.616,0.00440848991274834,0,
00:00:05.62,0.00575043074786663,0,
00:00:05.624,-0.00303543056361377,0,
00:00:05.628,-0.00285919127054513,0,
00:00:05.632,0.0015769338933751,0,
00:00:05.636,0.00536393839865923,0,
00:00:05.64,-0.00620902795344591,0,
00:00:05.644,-0.00230539101175964,0,
00:00:05.648,0.000323756277794018,0,
00:00:05.652,0.00349625782109797,0,
00:00:05.656,-0.00272391363978386,0,
00:00:05.66,-0.00108321383595467,0,
00:00:05.664,0.00133943534456193,0,
00:00:05.668,0.00837439205497503,0,
00:00:05.672,-0.000332212774083018,0,
00:00:05.676,-0.00868633296340704,0,
00:00:05.68,-0.00457775499671698,0,
00:00:05.684,0.00525863142684102,0,
00:00:05.688,0.0020713098347187,0,
00:00:05.692,-0.00165306823328137,0,
00:00:05.696,0.0016678802203387,0,
00:00:05.7,0.0011619507567957,0,
00:00:05.704,0.00189363781828433,0,
00:00:05.708,-0.00296579278074205,0,
00:00:05.712,-0.00679748132824898,0,
00:00:05.716,0.00532175973057747,0,
00:00:05.72,0.0042444197461009,0,
00:00:05.724,-0.00188381667248905,0,
00:00:05.728,-0.00454127788543701,0,
00:00:05.732,0.000939046905841678,0,
00:00:05.736,0.00617893831804395,0,
00:00:05.74,-0.00483251223340631,0,
00:00:05.744,-0.00334018841385841,0,
00:00:05.748,0.00261786160990596,0,
00:00:05.752,0.00484374817460775,0,
00:00:05.756,0.00104744115378708,0,
00:00:05.76,-0.00843897555023432,0,
00:00:05.764,-0.00123983714729548,0,
00:00:05.768,0.00903328135609627,0,
00:00:05.772,-0.000484138145111501,0,
00:00:05.776,-0.00503324251621962,0,
00:00:05.78,-0.000111346824269276,0,
00:00:05.784,0.00332219433039427,0,
00:00:05.788,-0.0010157753713429,0,
00:00:05.792,-0.00347226113080978,0,
00:00:05.796,-0.00262764166109264,0,
00:00:05.8,0.0101593611761928,0,
00:00:05.804,0.00438483990728855,0,
00:00:05.808,-0.00925244484096766,0,
00:00:05.812,-0.00835459772497416,0,
00:00:05.816,0.00617214804515243,0,
00:00:05.82,0.00568303372710943,0,
00:00:05.824,-0.00296949944458902,0,
00:00:05.828,-0.000241263333009556,0,
00:00:05.832,-0.00177004048600793,0,
00:00:05.836,0.00204993202351034,0,
00:00:05.84,0.00350979785434902,0,
00:00:05.844,-1.50439545905101E-05,0,
00:00:05.848,-0.00673386268317699,0,
00:00:05.852,-0.00091073359362781,0,
00:00:05.856,0.00383550697006285,0,
00:00:05.86,-0.00196019350551069,0,
00:00:05.864,0.00154937268234789,0,
00:00:05.868,0.00367762427777052,0,
00:00:05.872,-0.00151074142195284,0,
00:00:05.876,-0.00424602068960667,0,
00:00:05.88,-0.00116578734014183,0,
00:00:05.884,0.00584171060472727,0,
00:00:05.888,0.00268682069145143,0,
00:00:05.892,-0.00560854934155941,0,
00:00:05.896,-0.00340965273790061,0,
00:00:05.9,0.00467846635729074,0,
00:00:05.904,0.00489370105788112,0,
00:00:05.908,-0.00882493052631617,0,
00:00:05.912,-0.0022226891014725,0,
00:00:05.916,0.00453475117683411,0,
00:00:05.92,0.00583329331129789,0,
00:00:05.924,-0.00320753850974143,0,
00:00:05.928,-0.00101844663731754,0,
00:00:05.932,0.00156114099081606,0,
00:00:05.936,-0.000280024774838239,0,
00:00:05.94,-0.00589917134493589,0,
00:00:05.944,-0.00190935900900513,0,
00:00:05.948,0.00445343414321542,0,
00:00:05.952,0.008060147985816,0,
00:00:05.956,-0.00278795533813536,0,
00:00:05.96,-0.00851680990308523,0,
00:00:05.964,-0.000363482889952138,0,
00:00:05.968,0.0116988085210323,0,
00:00:05.972,-0.00242133345454931,0,
00:00:05.976,-0.00906321126967669,0,
00:00:05.98,0.00132336025126278,0,
00:00:05.984,0.00766508327797055,0,
00:00:05.988,-0.00181192450691015,0,
00:00:05.992,-0.00522117828950286,0,
00:00:05.996,-0.0015346520813182,0,
00:00:06,0.00819721259176731,0,
00:00:06.004,-0.000835273356642574,0,
00:00:06.008,-0.00486704474315047,0,
00:00:06.012,0.000260456406977028,0,
00:00:06.016,0.00153726490680128,0,
00:00:06.02,0.0031225997954607,0,
00:00:06.024,-0.00181764736771584,0,
00:00:06.028,-0.00415433943271637,0,
00:00:06.032,0.00123036815784872,0,
00:00:06.036,0.00418673688545823,0,
00:00:06.04,-0.00292849610559642,0,
00:00:06.044,0.000254626560490578,0,
00:00:06.048,-0.00134980701841414,0,
00:00:06.052,0.006378089543432,0,
00:00:06.056,-0.00462204124778509,0,
00:00:06.06,-0.00362249370664358,0,
00:00:06.064,0.00210916809737682,0,
00:00:06.068,0.00653592543676496,0,
00:00:06.072,-0.00517690926790237,0,
00:00:06.076,-0.0039085797034204,0,
00:00:06.08,0.000137335751787759,0,
00:00:06.084,0.00879614800214767,0,
00:00:06.088,0.000858052866533399,0,
00:00:06.092,-0.0096692880615592,0,
00:00:06.096,-0.00206781690940261,0,
00:00:06.1,0.00893458351492882,0,
00:00:06.104,-9.90554908639751E-05,0,
00:00:06.108,-0.00454849749803543,0,
00:00:06.112,-0.00187161297071725,0,
00:00:06.116,0.00328953773714602,0,
00:00:06.12,0.00248794024810195,0,
00:00:06.124,0.00439952546730638,0,
00:00:06.128,-0.00935620628297329,0,
00:00:06.132,0.0033062263391912,0,
00:00:06.136,0.000134196001454256,0,
00:00:06.14,-0.00541135761886835,0,
00:00:06.144,-0.0033612425904721,0,
00:00:06.148,0.00690260296687484,0,
00:00:06.152,0.00985087268054485,0,
00:00:06.156,-0.0027551562525332,0,
00:00:06.16,-0.00964024197310209,0,
00:00:06.164,0.000429281120887026,0,
00:00:06.168,0.00480278395116329,0,
00:00:06.172,-0.000208536206628196,0,
00:00:06.176,-0.00559176271781325,0,
00:00:06.18,0.000934422132559121,0,
00:00:06.184,0.011417293921113,0,
00:00:06.188,-0.00343943550251424,0,
00:00:06.192,-0.00584827642887831,0,
00:00:06.196,-0.0072134742513299,0,
00:00:06.2,0.00633109780028462,0,
00:00:06.204,0.00760078569874167,0,
00:00:06.208,-0.00719246035441756,0,
00:00:06.212,-0.00414641946554184,0,
00:00:06.216,0.00986694172024727,0,
00:00:06.22,0.00461342604830861,0,
00:00:06.224,-0.011019891127944,0,
00:00:06.228,-0.00412171892821789,0,
00:00:06.232,0.00586069328710437,0,
00:00:06.236,0.00413909554481506,0,
00:00:06.24,-0.00201374990865588,0,
00:00:06.244,-0.00661989068612456,0,
00:00:06.248,0.00299449847079813,0,
00:00:06.252,0.00790253933519125,0,
00:00:06.256,-0.00254531833343208,0,
00:00:06.26,-0.00825075432658196,0,
00:00:06.264,0.00187919195741415,0,
00:00:06.268,0.00563437910750508,0,
00:00:06.272,0.00195981352590024,0,
00:00:06.276,-0.0058818063698709,0,
00:00:06.28,-0.00319358985871077,0,
00:00:06.284,0.00508279167115688,0,
00:00:06.288,0.00313012348487973,0,
00:00:06.292,-0.00674973707646132,0,
00:00:06.296,0.00348838977515697,0,
00:00:06.3,0.00059919833438471,0,
00:00:06.304,0.00156376662198454,0,
00:00:06.308,-0.00466101709753275,0,
00:00:06.312,-0.00203934451565146,0,
00:00:06.316,0.00555186299607158,0,
00:00:06.32,0.00297243962995708,0,
00:00:06.324,-0.00511851022019982,0,
00:00:06.328,-0.00304366601631045,0,
00:00:06.332,0.00478725181892514,0,
00:00:06.336,0.00271250330843031,0,
00:00:06.34,-0.00289251119829714,0,
00:00:06.344,-0.0067743263207376,0,
00:00:06.348,0.00332177244126797,0,
00:00:06.352,0.0062818587757647,0,
00:00:06.356,0.00183011940680444,0,
00:00:06.36,-0.00640567531809211,0,
00:00:06.364,-0.00371115654706955,0,
00:00:06.368,0.00480072572827339,0,
00:00:06.372,0.00311277038417757,0,
00:00:06.376,-0.00660175923258066,0,
00:00:06.38,0.00159514090046287,0,
00:00:06.384,0.00269943848252296,0,
00:00:06.388,0.00324357580393553,0,
00:00:06.392,-0.00451335636898875,0,
00:00:06.396,0.00121345103252679,0,
00:00:06.4,-0.0015497577842325,0,
00:00:06.404,0.00101091980468482,0,
00:00:06.408,-0.00391004048287869,0,
00:00:06.412,-0.000864686153363436,0,
00:00:06.416,0.00642529595643282,0,
00:00:06.42,0.0032585000153631,0,
00:00:06.424,-0.00532101141288877,0,
00:00:06.428,-0.00345660140737891,0,
00:00:06.432,0.00442317174747586,0,
00:00:06.436,0.00460692821070552,0,
00:00:06.44,-0.004865194670856,0,
00:00:06.444,-0.00830744113773108,0,
00:00:06.448,0.00119326333515346,0,
00:00:06.452,0.0133314356207848,0,
00:00:06.456,-0.00358269130811095,0,
00:00:06.46,-0.00287968898192048,0,
00:00:06.464,-0.00355673115700483,0,
00:00:06.468,0.00383834540843964,0,
00:00:06.472,0.000177092239027843,0,
00:00:06.476,-0.00288304500281811,0,
00:00:06.48,-0.000684372789692134,0,
00:00:06.484,0.00976855400949717,0,
00:00:06.488,-0.00384238455444574,0,
00:00:06.492,-0.00941190402954817,0,
00:00:06.496,0.00175831757951528,0,
00:00:06.5,0.0083405552431941,0,
00:00:06.504,0.000760684139095247,0,
00:00:06.508,-0.00911240931600332,0,
00:00:06.512,-0.00131770444568247,0,
00:00:06.516,0.00735348695889115,0,
00:00:06.52,0.00403235433623195,0,
00:00:06.524,-0.00303900986909866,0,
00:00:06.528,-0.00772464647889137,0,
00:00:06.532,0.0044155209325254,0,
00:00:06.536,0.00375680881552398,0,
00:00:06.54,-0.001929349033162,0,
00:00:06.544,-0.00639923894777894,0,
00:00:06.548,0.00525799766182899,0,
00:00:06.552,0.00394594389945269,0,
00:00:06.556,-0.00220265588723123,0,
00:00:06.56,-0.00682276859879494,0,
00:00:06.564,0.000779302325099707,0,
00:00:06.568,0.0119193466380239,0,
00:00:06.572,-0.00282593700103462,0,
00:00:06.576,-0.00962709542363882,0,
00:00:06.58,0.000935572374146432,0,
00:00:06.584,0.0075636743567884,0,
00:00:06.588,-0.00169335433747619,0,
00:00:06.592,-0.00709647452458739,0,
00:00:06.596,0.000604677305091172,0,
00:00:06.6,0.00991208665072918,0,
00:00:06.604,0.00140591838862747,0,
00:00:06.608,-0.00981691107153893,0,
00:00:06.612,-0.00256764329969883,0,
00:00:06.616,0.00638857576996088,0,
00:00:06.62,0.00372175895608962,0,
00:00:06.624,-0.00485908426344395,0,
00:00:06.628,-0.00316810072399676,0,
00:00:06.632,0.00453067198395729,0,
00:00:06.636,0.00252042291685939,0,
00:00:06.64,-0.00294492673128843,0,
00:00:06.644,-0.00463651586323977,0,
00:00:06.648,-0.000622233783360571,0,
00:00:06.652,0.00878032855689526,0,
00:00:06.656,0.00136113737244159,0,
00:00:06.66,-0.00910809822380543,0,
00:00:06.664,0.000318569800583646,0,
00:00:06.668,0.00488185184076428,0,
00:00:06.672,-0.00204411335289478,0,
00:00:06.676,-0.00135095394216478,0,
00:00:06.68,0.00269955839030445,0,
00:00:06.684,0.00369990803301334,0,
00:00:06.688,-0.00233256514184177,0,
00:00:06.692,-0.00515075586736202,0,
00:00:06.696,-0.00163944100495428,0,
00:00:06.7,0.00589184695854783,0,
00:00:06.704,0.00513798603788018,0,
00:00:06.708,-0.0092345243319869,0,
00:00:06.712,-0.00279532419517636,0,
00:00:06.716,0.00622329162433743,0,
00:00:06.72,0.00376677257008851,0,
00:00:06.724,-0.00471729692071676,0,
00:00:06.728,-0.00305991270579398,0,
00:00:06.732,0.00454812683165073,0,
00:00:06.736,0.00246193050406873,0,
00:00:06.74,-0.0051066898740828,0,
00:00:06.744,-0.00273017934523523,0,
00:00:06.748,0.00306457560509443,0,
00:00:06.752,0.00491021992638707,0,
00:00:06.756,-0.00120153115130961,0,
00:00:06.76,-0.00667164474725723,0,
00:00:06.764,0.00236410577781498,0,
00:00:06.768,0.00724053615704179,0,
00:00:06.772,-0.00288776168599725,0,
00:00:06.776,-0.00614359555765986,0,
00:00:06.78,0.000163886055815965,0,
00:00:06.784,0.00428639119490981,0,
00:00:06.788,-9.99134717858396E-05,0,
00:00:06.792,-0.00301049253903329,0,
00:00:06.796,-0.000574615318328142,0,
00:00:06.8,0.00787659175693989,0,
00:00:06.804,0.000319857441354543,0,
00:00:06.808,-0.00975342001765966,0,
00:00:06.812,0.000201121714781038,0,
00:00:06.816,0.00513408053666353,0,
00:00:06.82,0.00247261649928987,0,
00:00:06.824,-0.0050250580534339,0,
00:00:06.828,-0.00255358777940273,0,
00:00:06.832,0.00113137892913073,0,
00:00:06.836,0.00899061001837254,0,
00:00:06.84,0.000465777673525736,0,
00:00:06.844,-0.01023162715137,0,
00:00:06.848,-0.000400184188038111,0,
00:00:06.852,0.00475060334429145,0,
00:00:06.856,0.000325416738633066,0,
00:00:06.86,-0.00289726373739541,0,
00:00:06.864,0.00138723035342991,0,
00:00:06.868,0.00365523132495582,0,
00:00:06.872,0.000546810275409371,0,
00:00:06.876,-0.00829669181257486,0,
00:00:06.88,0.00128155876882374,0,
00:00:06.884,0.00539771001785994,0,
00:00:06.888,5.68375944567379E-05,0,
00:00:06.892,-0.00357818277552724,0,
00:00:06.896,-0.0013038064353168,0,
00:00:06.9,0.00740479351952672,0,
00:00:06.904,-0.00184416375122964,0,
00:00:06.908,-0.00550991203635931,0,
00:00:06.912,-0.00400020880624652,0,
00:00:06.916,0.00991495419293642,0,
00:00:06.92,0.00492691528052092,0,
00:00:06.924,-0.00849754735827446,0,
00:00:06.928,-0.00781714823096991,0,
00:00:06.932,0.00633902102708817,0,
00:00:06.936,0.00555427139624953,0,
00:00:06.94,-0.00321948435157537,0,
00:00:06.944,-0.00253216177225113,0,
00:00:06.948,0.00217811041511595,0,
00:00:06.952,0.00379910622723401,0,
00:00:06.956,-0.0019384230254218,0,
00:00:06.96,-0.00477855885401368,0,
00:00:06.964,0.000619101978372782,0,
00:00:06.968,0.0080522783100605,0,
00:00:06.972,-0.00473592942580581,0,
00:00:06.976,-0.00888751167804003,0,
00:00:06.98,0.000887893256731331,0,
00:00:06.984,0.0113459592685103,0,
00:00:06.988,0.00074492214480415,0,
00:00:06.992,-0.00712699396535754,0,
00:00:06.996,-0.000982931815087795,0,
00:00:07,0.00812599714845419,0,
00:00:07.004,-0.00174939620774239,0,
00:00:07.008,-0.00592571776360273,0,
00:00:07.012,0.00172290112823248,0,
00:00:07.016,0.0016253498615697,0,
00:00:07.02,-9.84533617156558E-05,0,
00:00:07.024,-0.00521840807050467,0,
00:00:07.028,-0.00323582580313087,0,
00:00:07.032,0.00891921948641539,0,
00:00:07.036,0.00562919676303864,0,
00:00:07.04,-0.00258958991616964,0,
00:00:07.044,-0.00826742686331272,0,
00:00:07.048,0.00144343357533216,0,
00:00:07.052,0.00711297569796443,0,
00:00:07.056,-0.00251919776201248,0,
00:00:07.06,-0.00566392950713634,0,
00:00:07.064,0.000489042664412409,0,
00:00:07.068,0.00644995458424091,0,
00:00:07.072,-0.00424329284578562,0,
00:00:07.076,-0.00283665768802166,0,
00:00:07.08,0.000759606249630451,0,
00:00:07.084,0.00883837230503559,0,
00:00:07.088,-0.00156154774595052,0,
00:00:07.092,-0.00605449685826898,0,
00:00:07.096,-0.00271049328148365,0,
00:00:07.1,0.00528904423117638,0,
00:00:07.104,0.00299142533913255,0,
00:00:07.108,-0.00493720406666398,0,
00:00:07.112,-0.00282450951635838,0,
00:00:07.116,0.00495170755311847,0,
00:00:07.12,0.000709314888808876,0,
00:00:07.124,0.00115199806168675,0,
00:00:07.128,-0.00507921120151877,0,
00:00:07.132,-0.000168333092005923,0,
00:00:07.136,0.00359063292853534,0,
00:00:07.14,-0.000612365955021232,0,
00:00:07.144,-0.00317886075936258,0,
00:00:07.148,-0.000476314453408122,0,
00:00:07.152,0.00807870365679264,0,
00:00:07.156,-0.00158722489140928,0,
00:00:07.16,-0.00770569872111082,0,
00:00:07.164,0.00390173611231148,0,
00:00:07.168,0.00327258580364287,0,
00:00:07.172,-0.00422707432880998,0,
00:00:07.176,-0.00231543369591236,0,
00:00:07.18,0.00301348138600588,0,
00:00:07.184,0.00462318491190672,0,
00:00:07.188,-0.00148670235648751,0,
00:00:07.192,-0.0026701632887125,0,
00:00:07.196,-0.00366237456910312,0,
00:00:07.2,0.0039469595067203,0,
00:00:07.204,0.000482088507851586,0,
00:00:07.208,-0.000492805382236838,0,
00:00:07.212,-0.00455418089404702,0,
00:00:07.216,0.00596680771559477,0,
00:00:07.22,0.0035548924934119,0,
00:00:07.224,-0.00513045815750957,0,
00:00:07.228,-0.00348506844602525,0,
00:00:07.232,0.00223040487617254,0,
00:00:07.236,0.00650511309504509,0,
00:00:07.24,-0.0032130612526089,0,
00:00:07.244,-0.0101312296465039,0,
00:00:07.248,0.00864319037646055,0,
00:00:07.252,0.003932676743716,0,
00:00:07.256,-0.00291253090836108,0,
00:00:07.26,-0.00718807615339756,0,
00:00:07.264,0.000882300257217139,0,
00:00:07.268,0.00809789821505547,0,
00:00:07.272,0.00349463149905205,0,
00:00:07.276,-0.00404354929924011,0,
00:00:07.28,-0.00642343144863844,0,
00:00:07.284,0.00218496914021671,0,
00:00:07.288,0.000227574229938909,0,
00:00:07.292,-0.00182423600926995,0,
00:00:07.296,0.000475330423796549,0,
00:00:07.3,0.00837542209774256,0,
00:00:07.304,-0.00178284698631614,0,
00:00:07.308,-0.00601089326664805,0,
00:00:07.312,-0.00253838859498501,0,
00:00:07.316,0.00544908316805959,0,
00:00:07.32,0.00306552578695118,0,
00:00:07.324,-0.00287547428160906,0,
00:00:07.328,-0.00486253155395389,0,
00:00:07.332,0.00324401329271495,0,
00:00:07.336,0.00256830547004938,0,
00:00:07.34,-0.00413986854255199,0,
00:00:07.344,-0.00380446738563478,0,
00:00:07.348,0.00764141045510769,0,
00:00:07.352,0.00662756618112326,0,
00:00:07.356,-0.00708115473389626,0,
00:00:07.36,-0.00777695840224624,0,
00:00:07.364,0.0012911333469674,0,
00:00:07.368,0.0126307215541601,0,
00:00:07.372,-0.00449141627177596,0,
00:00:07.376,-0.00759538821876049,0,
00:00:07.38,0.00242663593962789,0,
00:00:07.384,0.00755496090278029,0,
00:00:07.388,-0.000572641845792532,0,
00:00:07.392,-0.0101129738613963,0,
00:00:07.396,-0.00161423860117793,0,
00:00:07.4,0.0076490924693644,0,
00:00:07.404,0.00457671470940113,0,
00:00:07.408,-0.00464443070814013,0,
00:00:07.412,-0.00344231724739075,0,
00:00:07.416,0.00407658843323588,0,
00:00:07.42,0.00215070066042244,0,
00:00:07.424,-0.00310876313596964,0,
00:00:07.428,-0.00461035175248981,0,
00:00:07.432,0.00157939968630672,0,
00:00:07.436,0.00485932873561978,0,
00:00:07.44,-0.00238039088435471,0,
00:00:07.444,0.0004717365372926,0,
00:00:07.448,-0.0014342701761052,0,
00:00:07.452,0.00614549778401852,0,
00:00:07.456,-0.00276943761855364,0,
00:00:07.46,-0.00779704190790653,0,
00:00:07.464,0.00242975843138993,0,
00:00:07.468,0.00598252331838012,0,
00:00:07.472,0.00204344070516527,0,
00:00:07.476,-0.00598067278042436,0,
00:00:07.48,-0.00127444660756737,0,
00:00:07.484,0.00298829469829798,0,
00:00:07.488,-0.000631693808827549,0,
00:00:07.492,-0.00285583641380072,0,
00:00:07.496,-0.000104674669273663,0,
00:00:07.5,0.00623344071209431,0,
00:00:07.504,0.00458265841007233,0,
00:00:07.508,-0.0101025309413671,0,
00:00:07.512,-0.00348537205718458,0,
00:00:07.516,0.00385321048088372,0,
00:00:07.52,0.00787991378456354,0,
00:00:07.524,-0.00480707874521613,0,
00:00:07.528,-0.00427980674430728,0,
00:00:07.532,0.00366926123388112,0,
00:00:07.536,0.000220799964154139,0,
00:00:07.54,-0.000718280381988734,0,
00:00:07.544,-0.0025950032286346,0,
00:00:07.548,0.00400003883987665,0,
00:00:07.552,0.0020031132735312,0,
00:00:07.556,-0.00519989803433418,0,
00:00:07.56,-0.0025661289691925,0,
00:00:07.564,0.00328546110540628,0,
00:00:07.568,0.00504802213981748,0,
00:00:07.572,-0.00118544802535325,0,
00:00:07.576,-0.0046654948964715,0,
00:00:07.58,0.00237104739062488,0,
00:00:07.584,-0.000597265257965773,0,
00:00:07.588,0.00129413395188749,0,
00:00:07.592,-0.00415840977802873,0,
00:00:07.596,-0.00337800895795226,0,
00:00:07.6,0.00805797334760427,0,
00:00:07.604,0.00477290386334062,0,
00:00:07.608,-0.00508399633690715,0,
00:00:07.612,-0.00415187887847424,0,
00:00:07.616,0.00560815492644906,0,
00:00:07.62,-2.29282863983826E-06,0,
00:00:07.624,-0.00668550934642553,0,
00:00:07.628,-0.00252823391929269,0,
00:00:07.632,0.00431839423254132,0,
00:00:07.636,0.00619575474411249,0,
00:00:07.64,-0.00051160273142159,0,
00:00:07.644,-0.00459585338830948,0,
00:00:07.648,-4.11429900850635E-05,0,
00:00:07.652,0.00301258033141494,0,
00:00:07.656,-0.0014334402512759,0,
00:00:07.66,-0.00376022653654218,0,
00:00:07.664,-0.000623978208750486,0,
00:00:07.668,0.00620487844571471,0,
00:00:07.672,0.00280276080593467,0,
00:00:07.676,-0.00775575172156096,0,
00:00:07.68,-0.00158135720994323,0,
00:00:07.684,0.00826955866068602,0,
00:00:07.688,0.000959684140980244,0,
00:00:07.692,-0.00725363800302148,0,
00:00:07.696,-0.0037198408972472,0,
00:00:07.7,0.00540189817547798,0,
00:00:07.704,0.00381134240888059,0,
00:00:07.708,-0.0061731724999845,0,
00:00:07.712,0.00165796023793519,0,
00:00:07.716,0.00665774056687951,0,
00:00:07.72,-0.00305106258019805,0,
00:00:07.724,-0.00394709128886461,0,
00:00:07.728,-0.00370217720046639,0,
00:00:07.732,0.00472532585263252,0,
00:00:07.736,0.00343245477415621,0,
00:00:07.74,-0.00404899008572102,0,
00:00:07.744,-0.00212786858901381,0,
00:00:07.748,0.0030863331630826,0,
00:00:07.752,0.00454524764791131,0,
00:00:07.756,0.000418562354752794,0,
00:00:07.76,-0.00897048134356737,0,
00:00:07.764,0.000610221119131893,0,
00:00:07.768,0.0050459778867662,0,
00:00:07.772,-0.00201328145340085,0,
00:00:07.776,-0.00138000503648072,0,
00:00:07.78,0.00474905874580145,0,
00:00:07.784,0.00380255212076008,0,
00:00:07.788,-0.00592384114861488,0,
00:00:07.792,-0.00901293940842152,0,
00:00:07.796,0.00102563539985567,0,
00:00:07.8,0.00941347703337669,0,
00:00:07.804,0.00696992967277765,0,
00:00:07.808,-0.00729844998568296,0,
00:00:07.812,-0.00810212083160877,0,
00:00:07.816,0.00521137518808246,0,
00:00:07.82,0.0044384622015059,0,
00:00:07.824,-0.00380909233354032,0,
00:00:07.828,-0.00252962042577565,0,
00:00:07.832,0.00462046312168241,0,
00:00:07.836,0.00225558667443693,0,
00:00:07.84,-0.00329148327000439,0,
00:00:07.844,-0.00902400817722082,0,
00:00:07.848,0.00949170906096697,0,
00:00:07.852,0.00620551500469446,0,
00:00:07.856,-0.00724611012265086,0,
00:00:07.86,-0.00520246429368854,0,
00:00:07.864,6.73095491947606E-05,0,
00:00:07.868,0.00946024805307388,0,
00:00:07.872,-0.000468328798888251,0,
00:00:07.876,-0.00726644229143858,0,
00:00:07.88,0.00167435046751052,0,
00:00:07.884,0.00482189003378153,0,
00:00:07.888,-0.000906325003597885,0,
00:00:07.892,-0.00431891111657023,0,
00:00:07.896,-0.00154943927191198,0,
00:00:07.9,0.00758811039850116,0,
00:00:07.904,0.000606779765803367,0,
00:00:07.908,-0.00714903557673097,0,
00:00:07.912,-0.0033929948695004,0,
00:00:07.916,0.00569235952571034,0,
00:00:07.92,0.00185687770135701,0,
00:00:07.924,-0.00216657272540033,0,
00:00:07.928,0.00119431421626359,0,
00:00:07.932,0.00298855197615922,0,
00:00:07.936,-9.34440831770189E-05,0,
00:00:07.94,-0.00655168807134032,0,
00:00:07.944,-0.00276412698440254,0,
00:00:07.948,0.00386235304176807,0,
00:00:07.952,0.00788855645805597,0,
00:00:07.956,-0.00470945984125137,0,
00:00:07.96,-0.00418358342722058,0,
00:00:07.964,0.00161634979303926,0,
00:00:07.968,0.00421676691621542,0,
00:00:07.972,0.000931595917791128,0,
00:00:07.976,-0.00819407124072313,0,
00:00:07.98,0.00119227089453489,0,
00:00:07.984,0.00732871657237411,0,
00:00:07.988,-0.00409674411639571,0,
00:00:07.992,-0.00327155413106084,0,
00:00:07.996,0.00226961169391871,0,
00:00:08,0.00442827632650733,0,
00:00:08.004,-0.00128117215353996,0,
00:00:08.008,-0.00234630750492215,0,
00:00:08.012,-0.00550786359235644,0,
00:00:08.016,0.00598401669412851,0,
00:00:08.02,0.00412855576723814,0,
00:00:08.024,-0.00241341372020543,0,
00:00:08.028,-0.00714012607932091,0,
00:00:08.032,0.00471623986959457,0,
00:00:08.036,0.00377306272275746,0,
00:00:08.04,-0.00207494152709842,0,
00:00:08.044,-0.00656908145174384,0,
00:00:08.048,0.00515136169269681,0,
00:00:08.052,0.00184848764911294,0,
00:00:08.056,0.00188672554213554,0,
00:00:08.06,-0.00502300588414073,0,
00:00:08.064,-0.000541369139682502,0,
00:00:08.068,0.00314786285161972,0,
00:00:08.072,0.00119072594679892,0,
00:00:08.076,-0.00727232778444886,0,
00:00:08.08,0.00205087941139936,0,
00:00:08.084,0.00565756019204855,0,
00:00:08.088,0.0019646817818284,0,
00:00:08.092,-0.00798481423407793,0,
00:00:08.096,-0.00128747674170882,0,
00:00:08.1,0.00870975106954575,0,
00:00:08.104,0.00125123804900795,0,
00:00:08.108,-0.00720705324783921,0,
00:00:08.112,-0.00385567103512585,0,
00:00:08.116,0.00313224364072084,0,
00:00:08.12,0.0056377612054348,0,
00:00:08.124,-0.00251570111140609,0,
00:00:08.128,0.00195227237418294,0,
00:00:08.132,-0.00397507846355438,0,
00:00:08.136,0.00423305202275515,0,
00:00:08.14,-0.00498256925493479,0,
00:00:08.144,-0.00476374244317412,0,
00:00:08.148,0.00948168989270926,0,
00:00:08.152,0.000906486122403294,0,
00:00:08.156,4.38589677287382E-06,0,
00:00:08.16,-0.00814488250762224,0,
00:00:08.164,0.00145072035957128,0,
00:00:08.168,0.00540216267108917,0,
00:00:08.172,-5.5393269576598E-05,0,
00:00:08.176,-0.00162812764756382,0,
00:00:08.18,-0.00334874982945621,0,
00:00:08.184,0.00368751748465002,0,
00:00:08.188,-1.25718358390259E-07,0,
00:00:08.192,-0.00297033786773682,0,
00:00:08.196,0.00139359314925969,0,
00:00:08.2,0.00368812261149287,0,
00:00:08.204,0.000588156864978373,0,
00:00:08.208,-0.00825797487050295,0,
00:00:08.212,-0.000766168348491192,0,
00:00:08.216,0.00531142810359597,0,
00:00:08.22,0.00575220212340355,0,
00:00:08.224,0.00248820474371314,0,
00:00:08.228,-0.00954385381191969,0,
00:00:08.232,-0.00372474314644933,0,
00:00:08.236,0.00075850635766983,0,
00:00:08.24,0.00269453716464341,0,
00:00:08.244,-0.00168673635926098,0,
00:00:08.248,0.00719656003639102,0,
00:00:08.252,0.00532597862184048,0,
00:00:08.256,-0.0081709623336792,0,
00:00:08.26,-0.00616322364658117,0,
00:00:08.264,0.00149249657988548,0,
00:00:08.268,0.00523816328495741,0,
00:00:08.272,8.30141070764512E-05,0,
00:00:08.276,-0.00542238261550665,0,
00:00:08.28,0.00302083999849856,0,
00:00:08.284,0.00517102982848883,0,
00:00:08.288,-0.00337660941295326,0,
00:00:08.292,0.00116755056660622,0,
00:00:08.296,-0.000195849599549547,0,
00:00:08.3,-0.00379869481548667,0,
00:00:08.304,-0.00191078218631446,0,
00:00:08.308,-0.00137619907036424,0,
00:00:08.312,-0.000170429557329044,0,
00:00:08.316,0.0115695996209979,0,
00:00:08.32,0.00243002525530756,0,
00:00:08.324,-0.00798008404672146,0,
00:00:08.328,-0.00759543105959892,0,
00:00:08.332,0.00574435852468014,0,
00:00:08.336,0.00673726759850979,0,
00:00:08.34,-0.00789877865463495,0,
00:00:08.344,-0.00233583524823189,0,
00:00:08.348,0.00389933213591576,0,
00:00:08.352,0.00729777198284864,0,
00:00:08.356,-0.00339944893494248,0,
00:00:08.36,-0.00874264910817146,0,
00:00:08.364,0.00392815982922912,0,
00:00:08.368,0.00392142962664366,0,
00:00:08.372,-0.00144358945544809,0,
00:00:08.376,-0.00803046673536301,0,
00:00:08.38,0.00744225457310677,0,
00:00:08.384,0.00763137917965651,0,
00:00:08.388,-0.00416822638362646,0,
00:00:08.392,-0.0115614039823413,0,
00:00:08.396,0.00559199275448918,0,
00:00:08.4,0.00564836710691452,0,
00:00:08.404,0.00107672391459346,0,
00:00:08.408,-0.00852705352008343,0,
00:00:08.412,0.00291530229151249,0,
00:00:08.416,0.00101758760865778,0,
00:00:08.42,0.00235604704357684,0,
00:00:08.424,-0.00402306532487273,0,
00:00:08.428,-0.00594050949439406,0,
00:00:08.432,0.00940526369959116,0,
00:00:08.436,0.0101425489410758,0,
00:00:08.44,-0.00689220754429698,0,
00:00:08.444,-0.0122023802250624,0,
00:00:08.448,0.000623459287453443,0,
00:00:08.452,0.0107956044375896,0,
00:00:08.456,-0.00428091734647751,0,
00:00:08.46,-0.00372398179024458,0,
00:00:08.464,0.00239382195286453,0,
00:00:08.468,0.00491535617038608,0,
00:00:08.472,-0.000841954490169883,0,
00:00:08.476,-0.00218694959767163,0,
00:00:08.48,-0.0035498458892107,0,
00:00:08.484,0.00582926999777555,0,
00:00:08.488,-0.00180360488593578,0,
00:00:08.492,-0.00654142443090677,0,
00:00:08.496,0.00325405318289995,0,
00:00:08.5,0.00823155418038368,0,
00:00:08.504,-0.0023156872484833,0,
00:00:08.508,-0.00611782027408481,0,
00:00:08.512,-0.00225451146252453,0,
00:00:08.516,0.00582954101264477,0,
00:00:08.52,0.00538429385051131,0,
00:00:08.524,-0.0068933661095798,0,
00:00:08.528,-0.00464845076203346,0,
00:00:08.532,0.00454370910301805,0,
00:00:08.536,0.00138720846734941,0,
00:00:08.54,4.67213576484937E-05,0,
00:00:08.544,-0.00451928563416004,0,
00:00:08.548,0.00567421549931169,0,
00:00:08.552,0.00527001917362213,0,
00:00:08.556,-0.00734939053654671,0,
00:00:08.56,-0.00519540579989553,0,
00:00:08.564,0.00211848900653422,0,
00:00:08.568,0.00538812950253487,0,
00:00:08.572,0.00196211435832083,0,
00:00:08.576,-0.00771442987024784,0,
00:00:08.58,-0.000948609958868474,0,
00:00:08.584,0.00686358334496617,0,
00:00:08.588,0.0032846755348146,0,
00:00:08.592,-0.00563932675868273,0,
00:00:08.596,-0.00172708090394735,0,
00:00:08.6,0.002287607640028,0,
00:00:08.604,-0.00112968613393605,0,
00:00:08.608,-0.0050602937117219,0,
00:00:08.612,0.00618717819452286,0,
00:00:08.616,0.00420237751677632,0,
00:00:08.62,-0.0024463867302984,0,
00:00:08.624,-0.00516782654449344,0,
00:00:08.628,-0.0015308732399717,0,
00:00:08.632,0.00806623324751854,0,
00:00:08.636,-0.000985239981673658,0,
00:00:08.64,-0.00286128767766058,0,
00:00:08.644,-0.00583663629367948,0,
00:00:08.648,0.00185998354572803,0,
00:00:08.652,0.00622342573478818,0,
00:00:08.656,0.0113596422597766,0,
00:00:08.66,-0.0108786439523101,0,
00:00:08.664,-0.00952033512294292,0,
00:00:08.668,0.00237611867487431,0,
00:00:08.672,-6.07651272730436E-05,0,
00:00:08.676,0.00608888361603022,0,
00:00:08.68,-0.000909069844055921,0,
00:00:08.684,0.00316925277002156,0,
00:00:08.688,0.000483701878692955,0,
00:00:08.692,-0.00635935366153717,0,
00:00:08.696,-0.00301476661115885,0,
00:00:08.7,0.00549827236682177,0,
00:00:08.704,0.00347256124950945,0,
00:00:08.708,-0.00453493278473616,0,
00:00:08.712,-0.00268287281505764,0,
00:00:08.716,0.00484984647482634,0,
00:00:08.72,0.00256697577424347,0,
00:00:08.724,-0.00517622195184231,0,
00:00:08.728,-0.000803869741503149,0,
00:00:08.732,0.00302938232198358,0,
00:00:08.736,0.00122204318176955,0,
00:00:08.74,-0.00509939761832356,0,
00:00:08.744,-0.00399281829595566,0,
00:00:08.748,0.00799773260951042,0,
00:00:08.752,0.00713086081668735,0,
00:00:08.756,-0.00672750035300851,0,
00:00:08.76,-0.00767589220777154,0,
00:00:08.764,0.00326945865526795,0,
00:00:08.768,0.00840428937226534,0,
00:00:08.772,-0.00430528074502945,0,
00:00:08.776,-0.00619843462482095,0,
00:00:08.78,0.00552945025265217,0,
00:00:08.784,0.00373692065477371,0,
00:00:08.788,-0.000585014349780977,0,
00:00:08.792,-0.00708983046934009,0,
00:00:08.796,-0.00294638774357736,0,
00:00:08.8,0.00814854353666306,0,
00:00:08.804,4.14793248637579E-05,0,
00:00:08.808,-0.00384000362828374,0,
00:00:08.812,-0.00117851130198687,0,
00:00:08.816,0.00569363683462143,0,
00:00:08.82,0.00252022827044129,0,
00:00:08.824,-0.00574049679562449,0,
00:00:08.828,-0.00348728871904314,0,
00:00:08.832,0.00257582566700876,0,
00:00:08.836,0.0047999070957303,0,
00:00:08.84,-0.00311203440651298,0,
00:00:08.844,-0.00028575916076079,0,
00:00:08.848,0.000259686465142295,0,
00:00:08.852,0.0021427720785141,0,
00:00:08.856,-0.00420595798641443,0,
00:00:08.86,-0.00194227241445333,0,
00:00:08.864,0.00541032757610083,0,
00:00:08.868,0.00278354599140584,0,
00:00:08.872,-0.0031529504340142,0,
00:00:08.876,-0.00709616718813777,0,
00:00:08.88,0.00311572779901326,0,
00:00:08.884,0.00831520743668079,0,
00:00:08.888,-0.00214593601413071,0,
00:00:08.892,-0.0080351373180747,0,
00:00:08.896,0.00189220905303955,0,
00:00:08.9,0.00552207510918379,0,
00:00:08.904,0.00182191224303097,0,
00:00:08.908,-0.0080514308065176,0,
00:00:08.912,0.000829682743642479,0,
00:00:08.916,0.00477223470807076,0,
00:00:08.92,0.00170765176881105,0,
00:00:08.924,-0.00565787358209491,0,
00:00:08.928,-0.00280683487653732,0,
00:00:08.932,0.00537880836054683,0,
00:00:08.936,0.00323258177377284,0,
00:00:08.94,-0.00266037578694522,0,
00:00:08.944,-0.00682502286508679,0,
00:00:08.948,0.00311941560357809,0,
00:00:08.952,0.00814965274184942,0,
00:00:08.956,-0.00442033866420388,0,
00:00:08.96,-0.0041187945753336,0,
00:00:08.964,0.00151868641842157,0,
00:00:08.968,0.00408922508358955,0,
00:00:08.972,-0.00121294346172363,0,
00:00:08.976,-0.00413385685533285,0,
00:00:08.98,0.000917361583560705,0,
00:00:08.984,0.0059294905513525,0,
00:00:08.988,-0.00299731874838471,0,
00:00:08.992,-0.00749529479071498,0,
00:00:08.996,0.000913106661755592,0,
00:00:09,0.0104733286425471,0,
00:00:09.004,0.001847158302553,0,
00:00:09.008,-0.00757714128121734,0,
00:00:09.012,-0.00669697532430291,0,
00:00:09.016,0.00653091538697481,0,
00:00:09.02,0.005009934771806,0,
00:00:09.024,-0.00185687991324812,0,
00:00:09.028,-0.00703893834725022,0,
00:00:09.032,0.00451610703021288,0,
00:00:09.036,0.00349613884463906,0,
00:00:09.04,-0.00434348033741117,0,
00:00:09.044,-0.000496927241329104,0,
00:00:09.048,0.000819572247564793,0,
00:00:09.052,0.00496249413117766,0,
00:00:09.056,-0.00569165125489235,0,
00:00:09.06,-0.00348565983586013,0,
00:00:09.064,0.00296616647392511,0,
00:00:09.068,0.00738887907937169,0,
00:00:09.072,-0.00268443929962814,0,
00:00:09.076,-0.00802456308156252,0,
00:00:09.08,0.00220057484693825,0,
00:00:09.084,0.00583488726988435,0,
00:00:09.088,-0.000101863843156025,0,
00:00:09.092,-0.00402521202340722,0,
00:00:09.096,-0.00170615664683282,0,
00:00:09.1,0.00722221098840237,0,
00:00:09.104,-0.00180599698796868,0,
00:00:09.108,-0.00535140372812748,0,
00:00:09.112,-0.00175991444848478,0,
00:00:09.116,0.00596280954778194,0,
00:00:09.12,0.00320311705581844,0,
00:00:09.124,-0.00509331980720162,0,
00:00:09.128,-0.00313217844814062,0,
00:00:09.132,0.00468592531979084,0,
00:00:09.136,0.00265730149112642,0,
00:00:09.14,-0.00496731698513031,0,
00:00:09.144,-0.00268718483857811,0,
00:00:09.148,0.00510645098984241,0,
00:00:09.152,0.00286958483047783,0,
00:00:09.156,-0.00497540691867471,0,
00:00:09.16,-0.00490007735788822,0,
00:00:09.164,0.00692653656005859,0,
00:00:09.168,0.00648766988888383,0,
00:00:09.172,-0.00472251791507006,0,
00:00:09.176,-0.00933029502630234,0,
00:00:09.18,0.00205297768115997,0,
00:00:09.184,0.00853720586746931,0,
00:00:09.188,-0.00335100688971579,0,
00:00:09.192,-0.00314669846557081,0,
00:00:09.196,0.00198410940356553,0,
00:00:09.2,0.00403785752132535,0,
00:00:09.204,0.00052020262228325,0,
00:00:09.208,-0.00855604186654091,0,
00:00:09.212,-0.00105568347498775,0,
00:00:09.216,0.00931969936937094,0,
00:00:09.22,0.00181699835229665,0,
00:00:09.224,-0.00691496301442385,0,
00:00:09.228,-0.00592841859906912,0,
00:00:09.232,0.00701394537463784,0,
00:00:09.236,0.00510594015941024,0,
00:00:09.24,-0.00411148741841316,0,
00:00:09.244,-0.00533000798895955,0,
00:00:09.248,0.00595334777608514,0,
00:00:09.252,0.00566751509904861,0,
00:00:09.256,-0.00506026996299624,0,
00:00:09.26,-0.00921644363552332,0,
00:00:09.264,0.0044704657047987,0,
00:00:09.268,0.00482009397819638,0,
00:00:09.272,-0.00282937800511718,0,
00:00:09.276,-0.00165864534210414,0,
00:00:09.28,0.00499630812555552,0,
00:00:09.284,0.002137630013749,0,
00:00:09.288,-0.00367285450920463,0,
00:00:09.292,-0.00733279064297676,0,
00:00:09.296,0.00313770934008062,0,
00:00:09.3,0.00639852462336421,0,
00:00:09.304,-1.88731530670339E-06,0,
00:00:09.308,-0.00421636085957289,0,
00:00:09.312,-0.00196423102170229,0,
00:00:09.316,0.00704963412135839,0,
00:00:09.32,-0.00184691313188523,0,
00:00:09.324,-0.00529412319883704,0,
00:00:09.328,-0.00166827021166682,0,
00:00:09.332,0.00603574514389038,0,
00:00:09.336,0.00323393545113504,0,
00:00:09.34,-0.00510035967454314,0,
00:00:09.344,-0.0031583602540195,0,
00:00:09.348,0.00465977005660534,0,
00:00:09.352,0.00264238030649722,0,
00:00:09.356,-0.00289348815567791,0,
00:00:09.36,-0.00673181982710958,0,
00:00:09.364,0.00337256188504398,0,
00:00:09.368,0.0083918571472168,0,
00:00:09.372,-0.00221104640513659,0,
00:00:09.376,-0.00815670192241669,0,
00:00:09.38,0.00178927031811327,0,
00:00:09.384,0.00547407288104296,0,
00:00:09.388,0.00182663323357701,0,
00:00:09.392,-0.0080178864300251,0,
00:00:09.396,0.00086569570703432,0,
00:00:09.4,0.00479423720389605,0,
00:00:09.404,-0.000363761995686218,0,
00:00:09.408,-0.00161459040828049,0,
00:00:09.412,-0.00315169966779649,0,
00:00:09.416,0.0039049934130162,0,
00:00:09.42,0.00220940518192947,0,
00:00:09.424,-0.00491983303800225,0,
00:00:09.428,-0.00237345066852868,0,
00:00:09.432,0.00541402818635106,0,
00:00:09.436,0.00301792635582387,0,
00:00:09.44,-0.00499881105497479,0,
00:00:09.444,-0.000870323099661618,0,
00:00:09.448,0.000769276753999293,0,
00:00:09.452,0.00509739900007844,0,
00:00:09.456,-0.00552854500710964,0,
00:00:09.46,-0.00339020369574428,0,
00:00:09.464,0.0029734696727246,0,
00:00:09.468,0.00733788544312119,0,
00:00:09.472,-0.00482491450384259,0,
00:00:09.476,-0.00401891814544797,0,
00:00:09.48,0.0018524742918089,0,
00:00:09.484,0.00437934091314673,0,
00:00:09.488,-0.00110201491042972,0,
00:00:09.492,-0.00419294554740191,0,
00:00:09.496,-0.0013007172383368,0,
00:00:09.5,0.00569497002288699,0,
00:00:09.504,0.00262245605699718,0,
00:00:09.508,-0.0055826916359365,0,
00:00:09.512,-0.00333518884144723,0,
00:00:09.516,0.00267655542120337,0,
00:00:09.52,0.0069118975661695,0,
00:00:09.524,-0.00510047748684883,0,
00:00:09.528,-0.00403836322948337,0,
00:00:09.532,0.00410173833370209,0,
00:00:09.536,0.00263567920774221,0,
00:00:09.54,-0.00671953381970525,0,
00:00:09.544,0.0017287622904405,0,
00:00:09.548,0.00290881167165935,0,
00:00:09.552,0.00547280488535762,0,
00:00:09.556,-0.00643991539254785,0,
00:00:09.56,-0.00461665960028768,0,
00:00:09.564,7.59697722969577E-05,0,
00:00:09.568,0.00912634376436472,0,
00:00:09.572,-0.000816049985587597,0,
00:00:09.576,-0.00743409572169185,0,
00:00:09.58,0.00170895736664534,0,
00:00:09.584,0.00497345812618732,0,
00:00:09.588,-0.000744982564356178,0,
00:00:09.592,-0.00421841954812407,0,
00:00:09.596,0.000549064774531871,0,
00:00:09.6,0.0055805342271924,0,
00:00:09.604,-0.00316158169880509,0,
00:00:09.608,-0.00746610248461366,0,
00:00:09.612,0.00312668131664395,0,
00:00:09.616,0.00656814314424992,0,
00:00:09.62,0.00227001658640802,0,
00:00:09.624,-0.00609341962262988,0,
00:00:09.628,-0.00570782041177154,0,
00:00:09.632,0.00874527730047703,0,
00:00:09.636,0.00260191154666245,0,
00:00:09.64,-0.006137705873698,0,
00:00:09.644,-0.00561878504231572,0,
00:00:09.648,0.00690644374117255,0,
00:00:09.652,0.0048202546313405,0,
00:00:09.656,-0.00228298874571919,0,
00:00:09.66,-0.00533479545265436,0,
00:00:09.664,0.000290682073682547,0,
00:00:09.668,0.00384838622994721,0,
00:00:09.672,0.00139832880813628,0,
00:00:09.676,-0.00744520220905542,0,
00:00:09.68,-0.000322823412716389,0,
00:00:09.684,0.00741120846942067,0,
00:00:09.688,0.00353875663131475,0,
00:00:09.692,-0.00567328697070479,0,
00:00:09.696,-0.00191852892749012,0,
00:00:09.7,0.00208468618802726,0,
00:00:09.704,-0.00125277310144156,0,
00:00:09.708,-0.00300823105499148,0,
00:00:09.712,0.000104849226772785,0,
00:00:09.716,0.00657633738592267,0,
00:00:09.72,0.000710132473614067,0,
00:00:09.724,-0.00187628832645714,0,
00:00:09.728,-0.00417106878012419,0,
00:00:09.732,0.00290450407192111,0,
00:00:09.736,0.00169129308778793,0,
00:00:09.74,-0.0049015786498785,0,
00:00:09.744,-0.00203039916232228,0,
00:00:09.748,0.00373368640430272,0,
00:00:09.752,0.00732972333207726,0,
00:00:09.756,-0.00526038417592645,0,
00:00:09.76,-0.00448013469576836,0,
00:00:09.764,0.00160326948389411,0,
00:00:09.768,0.00437867967411876,0,
00:00:09.772,-0.000947919499594718,0,
00:00:09.776,-0.00608611386269331,0,
00:00:09.78,0.00494871428236365,0,
00:00:09.784,0.00342172151431441,0,
00:00:09.788,-0.00259107025340199,0,
00:00:09.792,-0.00486033782362938,0,
00:00:09.796,0.000993506051599979,0,
00:00:09.8,0.00435730256140232,0,
00:00:09.804,-0.000517637701705098,0,
00:00:09.808,-0.00144083262421191,0,
00:00:09.812,-0.00494685443118215,0,
00:00:09.816,0.00607225997373462,0,
00:00:09.82,0.00388399139046669,0,
00:00:09.824,-0.00483296066522598,0,
00:00:09.828,-0.00334758847020566,0,
00:00:09.832,0.00220770598389208,0,
00:00:09.836,0.00639484589919448,0,
00:00:09.84,-0.00540451006963849,0,
00:00:09.844,-0.00407405802980065,0,
00:00:09.848,0.00216998090036213,0,
00:00:09.852,0.00687773758545518,0,
00:00:09.856,-0.00276325293816626,0,
00:00:09.86,-0.00779007840901613,0,
00:00:09.864,0.00460673496127129,0,
00:00:09.868,0.00411008344963193,0,
00:00:09.872,-0.0016453864518553,0,
00:00:09.876,-0.00630999822169542,0,
00:00:09.88,0.00309325661510229,0,
00:00:09.884,0.00782612152397633,0,
00:00:09.888,-0.00268977740779519,0,
00:00:09.892,-0.00836945325136185,0,
00:00:09.896,0.00182931625749916,0,
00:00:09.9,0.00772364344447851,0,
00:00:09.904,-0.00204565958119929,0,
00:00:09.908,-0.00757906958460808,0,
00:00:09.912,0.00234826025553048,0,
00:00:09.916,0.0078484071418643,0,
00:00:09.92,-0.000136488539283164,0,
00:00:09.924,-0.00982349645346403,0,
00:00:09.928,-0.00158465187996626,0,
00:00:09.932,0.00540338549762964,0,
00:00:09.936,0.00839431304484606,0,
00:00:09.94,-0.00515801925212145,0,
00:00:09.944,-0.00498345401138067,0,
00:00:09.948,0.000996848568320274,0,
00:00:09.952,0.00607918528839946,0,
00:00:09.956,-0.00298235169611871,0,
00:00:09.96,-0.00756627228111029,0,
00:00:09.964,0.00292259058915079,0,
00:00:09.968,0.00848492980003357,0,
00:00:09.972,-0.0018328531878069,0,
00:00:09.976,-0.00779562722891569,0,
00:00:09.98,0.00196441914886236,0,
00:00:09.984,0.00545148272067308,0,
00:00:09.988,-0.000385288818506524,0,
00:00:09.992,-0.00411455286666751,0,
00:00:09.996,0.000439731637015939,0,
00:00:10,0.0033079890999943,0,
00:00:10.004,-0.00135403918102384,0,
00:00:10.008,-0.00382878351956606,0,
00:00:10.012,-0.000742832256946713,0,
00:00:10.016,0.00818669237196445,0,
00:00:10.02,0.000789765792433172,0,
00:00:10.024,-0.00938586704432964,0,
00:00:10.028,-0.00172244955319911,0,
00:00:10.032,0.00914685428142548,0,
00:00:10.036,0.00200619851239026,0,
00:00:10.04,-0.00662149488925934,0,
00:00:10.044,-0.00364740658551455,0,
00:00:10.048,0.00301353121176362,0,
00:00:10.052,0.00744554400444031,0,
00:00:10.056,-0.00265971780754626,0,
00:00:10.06,-0.00801992882043123,0,
00:00:10.064,0.00220263516530395,0,
00:00:10.068,0.00791823491454124,0,
00:00:10.072,-0.00206511025317013,0,
00:00:10.076,-0.00565545354038477,0,
00:00:10.08,-0.00187561300117522,0,
00:00:10.084,0.00806719437241554,0,
00:00:10.088,-0.000780080677941442,0,
00:00:10.092,-0.00679989764466882,0,
00:00:10.096,0.00237006321549416,0,
00:00:10.1,0.0074030002579093,0,
00:00:10.104,-0.00272179045714438,0,
00:00:10.108,-0.00608129519969225,0,
00:00:10.112,-0.00196362752467394,0,
00:00:10.116,0.00822524819523096,0,
00:00:10.12,-0.000540943176019937,0,
00:00:10.124,-0.00453816168010235,0,
00:00:10.128,-0.00160531140863895,0,
00:00:10.132,0.00563942827284336,0,
00:00:10.136,0.00480146845802665,0,
00:00:10.14,-0.00743712577968836,0,
00:00:10.144,-0.00699886539950967,0,
00:00:10.148,0.00445118872448802,0,
00:00:10.152,0.0114052779972553,0,
00:00:10.156,-0.00593872740864754,0,
00:00:10.16,-0.00800873525440693,0,
00:00:10.164,0.00494640087708831,0,
00:00:10.168,0.00627932464703918,0,
00:00:10.172,-0.00588357262313366,0,
00:00:10.176,-0.00416173413395882,0,
00:00:10.18,0.00242169434204698,0,
00:00:10.184,0.0051194210536778,0,
00:00:10.188,0.0014690199168399,0,
00:00:10.192,-0.00812845304608345,0,
00:00:10.196,-0.00113869365304708,0,
00:00:10.2,0.00688632624223828,0,
00:00:10.204,0.00342233758419752,0,
00:00:10.208,-0.00549343787133694,0,
00:00:10.212,-0.00163896172307432,0,
00:00:10.216,0.000228352073463611,0,
00:00:10.22,0.00288899010047317,0,
00:00:10.224,-0.00336491223424673,0,
00:00:10.228,-0.00144017906859517,0,
00:00:10.232,0.0054777842015028,0,
00:00:10.236,0.0025567808188498,0,
00:00:10.24,-0.00553536741062999,0,
00:00:10.244,-0.00326886074617505,0,
00:00:10.248,0.00477825244888663,0,
00:00:10.252,0.00283739808946848,0,
00:00:10.256,-0.00481719197705388,0,
00:00:10.26,-0.00262112962082028,0,
00:00:10.264,0.00509401690214872,0,
00:00:10.268,0.0028162042144686,0,
00:00:10.272,-0.0029541552066803,0,
00:00:10.276,-0.00690720649436116,0,
00:00:10.28,0.00320386048406363,0,
00:00:10.284,0.0082989577203989,0,
00:00:10.288,-0.00221987045370042,0,
00:00:10.292,-0.00603679940104485,0,
00:00:10.296,-0.00220567430369556,0,
00:00:10.3,0.00584645150229335,0,
00:00:10.304,0.00330398185178638,0,
00:00:10.308,-0.00493092881515622,0,
00:00:10.312,-0.00301765464246273,0,
00:00:10.316,0.00679144915193319,0,
00:00:10.32,0.000645756896119565,0,
00:00:10.324,-0.008745894767344,0,
00:00:10.328,-0.000938444980420172,0,
00:00:10.332,0.00756938196718693,0,
00:00:10.336,0.00407798727974296,0,
00:00:10.34,-0.00517046265304089,0,
00:00:10.344,-0.00375264626927674,0,
00:00:10.348,0.00403002137318254,0,
00:00:10.352,0.00228095753118396,0,
00:00:10.356,-0.00500550493597984,0,
00:00:10.36,-0.0025037657469511,0,
00:00:10.364,0.00326862349174917,0,
00:00:10.368,0.00708996644243598,0,
00:00:10.372,-0.0052516502328217,0,
00:00:10.376,-0.00432221405208111,0,
00:00:10.38,0.00178431172389537,0,
00:00:10.384,0.00449707452207804,0,
00:00:10.388,-0.000916427059564739,0,
00:00:10.392,-0.00404302356764674,0,
00:00:10.396,-0.00123433535918593,0,
00:00:10.4,0.00776031007990241,0,
00:00:10.404,-0.00147942616604269,0,
00:00:10.408,-0.00530200311914086,0,
00:00:10.412,-0.00190129526890814,0,
00:00:10.416,0.00576688488945365,0,
00:00:10.42,0.00305782910436392,0,
00:00:10.424,-0.00722298258915544,0,
00:00:10.428,-0.00113432237412781,0,
00:00:10.432,0.00430970685556531,0,
00:00:10.436,0.0048629529774189,0,
00:00:10.44,-0.00206427951343358,0,
00:00:10.444,-0.00758774252608418,0,
00:00:10.448,0.00187563081271946,0,
00:00:10.452,0.00725837703794241,0,
00:00:10.456,-0.00463051442056894,0,
00:00:10.46,-0.0037805309984833,0,
00:00:10.464,0.00206509581767023,0,
00:00:10.468,0.00453839171677828,0,
00:00:10.472,0.00106888602022082,0,
00:00:10.476,-0.00820716843008995,0,
00:00:10.48,-0.000970635854173452,0,
00:00:10.484,0.00921476166695356,0,
00:00:10.488,-0.000429654464824125,0,
00:00:10.492,-0.00715155713260174,0,
00:00:10.496,0.00178304978180677,0,
00:00:10.5,0.00489554135128856,0,
00:00:10.504,0.00120491965208203,0,
00:00:10.508,-0.00628731586039066,0,
00:00:10.512,-0.00319931586273015,0,
00:00:10.516,0.00532455509528518,0,
00:00:10.52,0.00341801438480616,0,
00:00:10.524,-0.00448060082271695,0,
00:00:10.528,-0.00258273771032691,0,
00:00:10.532,0.00701087061315775,0,
00:00:10.536,0.000631533621344715,0,
00:00:10.54,-0.00682238023728132,0,
00:00:10.544,-0.00516083696857095,0,
00:00:10.548,0.007792211137712,0,
00:00:10.552,0.00551495840772986,0,
00:00:10.556,-0.0020428798161447,0,
00:00:10.56,-0.00756547600030899,0,
00:00:10.564,0.0040091834962368,0,
00:00:10.568,0.00321549386717379,0,
00:00:10.572,-0.00229641981422901,0,
00:00:10.576,-0.00441727228462696,0,
00:00:10.58,-0.000755026994738728,0,
00:00:10.584,0.00852040760219097,0,
00:00:10.588,0.00115944095887244,0,
00:00:10.592,-0.00709952553734183,0,
00:00:10.596,-0.00368460454046726,0,
00:00:10.6,0.00738927954807878,0,
00:00:10.604,-0.000391453562770039,0,
00:00:10.608,-0.00390475313179195,0,
00:00:10.612,-0.00101064378395677,0,
00:00:10.616,0.00591798685491085,0,
00:00:10.62,0.00267695588991046,0,
00:00:10.624,-0.00569278839975595,0,
00:00:10.628,-0.00352478679269552,0,
00:00:10.632,0.00250423396937549,0,
00:00:10.636,0.00473901350051165,0,
00:00:10.64,-0.003140534972772,0,
00:00:10.644,-0.00443462422117591,0,
00:00:10.648,0.0063059045933187,0,
00:00:10.652,0.00554861547425389,0,
00:00:10.656,-0.00538042932748795,0,
00:00:10.66,-0.00949531886726618,0,
00:00:10.664,0.00227364641614258,0,
00:00:10.668,0.00682626105844975,0,
00:00:10.672,0.000998510280624032,0,
00:00:10.676,-0.00334626459516585,0,
00:00:10.68,-0.00157598918303847,0,
00:00:10.684,0.00696880184113979,0,
00:00:10.688,-0.00217848224565387,0,
00:00:10.692,-0.00563523126766086,0,
00:00:10.696,-0.00187068525701761,0,
00:00:10.7,0.00807635858654976,0,
00:00:10.704,-0.000739632989279926,0,
00:00:10.708,-0.00465695047751069,0,
00:00:10.712,-0.00161142903380096,0,
00:00:10.716,0.00778560293838382,0,
00:00:10.72,-0.00123673188500106,0,
00:00:10.724,-0.0029898842331022,0,
00:00:10.728,-0.00377004710026085,0,
00:00:10.732,0.00409441813826561,0,
00:00:10.736,0.0027751533780247,0,
00:00:10.74,-0.00441255606710911,0,
00:00:10.744,-0.00214669737033546,0,
00:00:10.748,0.00328615447506309,0,
00:00:10.752,0.00479132449254394,0,
00:00:10.756,-0.00148804078344256,0,
00:00:10.76,-0.0048672310076654,0,
00:00:10.764,0.000238401160459034,0,
00:00:10.768,0.00350594916380942,0,
00:00:10.772,-0.00102144526317716,0,
00:00:10.776,-0.00357051589526236,0,
00:00:10.78,0.00143081869464368,0,
00:00:10.784,0.0040945615619421,0,
00:00:10.788,-0.00105875148437917,0,
00:00:10.792,-0.00604456895962358,0,
00:00:10.796,0.00296256574802101,0,
00:00:10.8,0.00753060262650251,0,
00:00:10.804,-0.00292397849261761,0,
00:00:10.808,-0.00636633671820164,0,
00:00:10.812,-0.00215329835191369,0,
00:00:10.816,0.00818671006709337,0,
00:00:10.82,0.00160882528871298,0,
00:00:10.824,-0.00847760029137135,0,
00:00:10.828,-0.00118474732153118,0,
00:00:10.832,0.00921631045639515,0,
00:00:10.836,0.00176094996277243,0,
00:00:10.84,-0.00695066573098302,0,
00:00:10.844,-0.00388644263148308,0,
00:00:10.848,0.00292911427095532,0,
00:00:10.852,0.00748761603608727,0,
00:00:10.856,-0.00463752541691065,0,
00:00:10.86,-0.0038802030030638,0,
00:00:10.864,0.00191448268014938,0,
00:00:10.868,0.00437777955085039,0,
00:00:10.872,-0.00113555905409157,0,
00:00:10.876,-0.00422852952033281,0,
00:00:10.88,0.000754566979594529,0,
00:00:10.884,0.00371716101653874,0,
00:00:10.888,-0.00108613620977849,0,
00:00:10.892,-0.00377227133139968,0,
00:00:10.896,0.00123398215509951,0,
00:00:10.9,0.0019087438704446,0,
00:00:10.904,0.00298013770952821,0,
00:00:10.908,-0.00425186567008495,0,
00:00:10.912,-0.00248838984407485,0,
00:00:10.916,0.00481425458565354,0,
00:00:10.92,0.00242220005020499,0,
00:00:10.924,-0.00529233086854219,0,
00:00:10.928,-0.00290429894812405,0,
00:00:10.932,0.00713524967432022,0,
00:00:10.936,-0.00110122165642679,0,
00:00:10.94,-0.00451820064336061,0,
00:00:10.944,0.000814279774203897,0,
00:00:10.948,0.00403675017878413,0,
00:00:10.952,0.00130313821136951,0,
00:00:10.956,-0.00560918217524886,0,
00:00:10.96,-0.00253551220521331,0,
00:00:10.964,0.00147368642501533,0,
00:00:10.968,0.00935545563697815,0,
00:00:10.972,-0.00140205072239041,0,
00:00:10.976,-0.00823684968054295,0,
00:00:10.98,0.00321488175541162,0,
00:00:10.984,0.0028206673450768,0,
00:00:10.988,-0.00225194077938795,0,
00:00:10.992,-0.00413206312805414,0,
00:00:10.996,-0.000457059941254556,0,
00:00:11,0.00869225990027189,0,
00:00:11.004,0.00117997417692095,0,
00:00:11.008,-0.00925417710095644,0,
00:00:11.012,-0.00181343115400523,0,
00:00:11.016,0.00895668379962444,0,
00:00:11.02,0.00183588068466634,0,
00:00:11.024,-0.00878442917019129,0,
00:00:11.028,-0.00167373835574836,0,
00:00:11.032,0.00678026396781206,0,
00:00:11.036,0.00570472748950124,0,
00:00:11.04,-0.00718245841562748,0,
00:00:11.044,-0.00516338972374797,0,
00:00:11.048,0.00414688605815172,0,
00:00:11.052,0.00333015248179436,0,
00:00:11.056,-0.00391045957803726,0,
00:00:11.06,-0.00191586522851139,0,
00:00:11.064,0.00326158013194799,0,
00:00:11.068,0.00463562086224556,0,
00:00:11.072,-0.0016472265124321,0,
00:00:11.076,-0.00703193806111813,0,
00:00:11.08,0.00220615952275693,0,
00:00:11.084,0.00726801203563809,0,
00:00:11.088,-0.00276379520073533,0,
00:00:11.092,-0.00601640809327364,0,
00:00:11.096,-0.00183738628402352,0,
00:00:11.1,0.00834924075752497,0,
00:00:11.104,-0.000463164877146482,0,
00:00:11.108,-0.00451697735115886,0,
00:00:11.112,-0.00162477476987988,0,
00:00:11.116,0.00768085150048137,0,
00:00:11.12,0.000722171273082495,0,
00:00:11.124,-0.00919212121516466,0,
00:00:11.128,-0.0014807436382398,0,
00:00:11.132,0.00722306687384844,0,
00:00:11.136,0.00400818698108196,0,
00:00:11.14,-0.00504116015508771,0,
00:00:11.144,-0.00355878635309637,0,
00:00:11.148,0.00210418365895748,0,
00:00:11.152,0.00431673554703593,0,
00:00:11.156,0.000770430255215615,0,
00:00:11.16,-0.00840889569371939,0,
00:00:11.164,0.00313881924375892,0,
00:00:11.168,0.00326929031871259,0,
00:00:11.172,-0.00161358166951686,0,
00:00:11.176,-0.00576335843652487,0,
00:00:11.18,0.00368983903899789,0,
00:00:11.184,0.00817696657031775,0,
00:00:11.188,-0.00264636054635048,0,
00:00:11.192,-0.00853189174085855,0,
00:00:11.196,0.00161257036961615,0,
00:00:11.2,0.0054908306337893,0,
00:00:11.204,0.00195016188081354,0,
00:00:11.208,-0.00580878648906946,0,
00:00:11.212,-0.00310344900935888,0,
00:00:11.216,0.0051442994736135,0,
00:00:11.22,0.00107272004242986,0,
00:00:11.224,-0.00271336128935218,0,
00:00:11.228,-0.00102420593611896,0,
00:00:11.232,0.00513716647401452,0,
00:00:11.236,0.0039176749996841,0,
00:00:11.24,-0.00810803659260273,0,
00:00:11.244,-0.00513912737369537,0,
00:00:11.248,0.00264362385496497,0,
00:00:11.252,0.00594464270398021,0,
00:00:11.256,0.000203040835913271,0,
00:00:11.26,-0.00571186933666468,0,
00:00:11.264,0.00468376977369189,0,
00:00:11.268,0.00288408319465816,0,
00:00:11.272,-0.00306313089095056,0,
00:00:11.276,-0.00716945389285684,0,
00:00:11.28,0.00505029782652855,0,
00:00:11.284,0.00416686851531267,0,
00:00:11.288,-0.00182092655450106,0,
00:00:11.292,-0.0065088220871985,0,
00:00:11.296,0.00299531570635736,0,
00:00:11.3,0.00784686394035816,0,
00:00:11.304,-0.00259935460053384,0,
00:00:11.308,-0.00827288720756769,0,
00:00:11.312,0.0018897094996646,0,
00:00:11.316,0.0056617371737957,0,
00:00:11.32,0.00198628148064017,0,
00:00:11.324,-0.00586683442816138,0,
00:00:11.328,-0.00319164758548141,0,
00:00:11.332,0.00507630174979568,0,
00:00:11.336,0.00312148127704859,0,
00:00:11.34,-0.00468015763908625,0,
00:00:11.344,-0.00264061149209738,0,
00:00:11.348,0.00290897348895669,0,
00:00:11.352,0.00674918619915843,0,
00:00:11.356,-0.00543722044676542,0,
00:00:11.36,-0.00641385605558753,0,
00:00:11.364,0.00592542300000787,0,
00:00:11.368,0.00635283906012774,0,
00:00:11.372,-0.0042784963734448,0,
00:00:11.376,-0.00875641033053398,0,
00:00:11.38,0.00243705767206848,0,
00:00:11.384,0.00863215606659651,0,
00:00:11.388,-0.00139756279531866,0,
00:00:11.392,-0.00739832175895572,0,
00:00:11.396,0.00215567671693861,0,
00:00:11.4,0.00750848464667797,0,
00:00:11.404,-0.00249778386205435,0,
00:00:11.408,-0.00590566406026483,0,
00:00:11.412,-0.00190567236859351,0,
00:00:11.416,0.00610608980059624,0,
00:00:11.42,0.00134670606348664,0,
00:00:11.424,-0.00297359563410282,0,
00:00:11.428,0.00060870690504089,0,
00:00:11.432,0.000745920988265425,0,
00:00:11.436,0.00205439748242497,0,
00:00:11.44,-0.00252510700374842,0,
00:00:11.444,-0.00430113356560469,0,
00:00:11.448,0.00150106498040259,0,
00:00:11.452,0.00459871161729097,0,
00:00:11.456,-0.00260487385094166,0,
00:00:11.46,-0.00168588222004473,0,
00:00:11.464,0.00474482169374824,0,
00:00:11.468,0.00395324407145381,0,
00:00:11.472,-0.00576878990978003,0,
00:00:11.476,-0.00893591251224279,0,
00:00:11.48,0.00309209059923887,0,
00:00:11.484,0.00737866200506687,0,
00:00:11.488,0.00111148867290467,0,
00:00:11.492,-0.00356552423909307,0,
00:00:11.496,-0.00190875399857759,0,
00:00:11.5,0.00670665549114347,0,
00:00:11.504,-0.0022890146356076,0,
00:00:11.508,-0.00561032444238663,0,
00:00:11.512,-0.00177738361526281,0,
00:00:11.516,0.00609385780990124,0,
00:00:11.52,0.0033647445961833,0,
00:00:11.524,-0.00498317927122116,0,
00:00:11.528,-0.0030994126573205,0,
00:00:11.532,0.00465939426794648,0,
00:00:11.536,0.00260750390589237,0,
00:00:11.54,-0.00500932475551963,0,
00:00:11.544,-0.00270658987574279,0,
00:00:11.548,0.0030328209977597,0,
00:00:11.552,0.00485874013975263,0,
00:00:11.556,0.000832919671665877,0,
00:00:11.56,-0.00866476353257895,0,
00:00:11.564,0.00280141015537083,0,
00:00:11.568,0.00302692083641887,0,
00:00:11.572,-0.00169704563450068,0,
00:00:11.576,-0.00571824191138148,0,
00:00:11.58,0.00379076856188476,0,
00:00:11.584,0.00826722476631403,0,
00:00:11.588,-0.00467685470357537,0,
00:00:11.592,-0.00448123179376125,0,
00:00:11.596,-0.00082347186980769,0,
00:00:11.6,0.00804602075368166,0,
00:00:11.604,-0.00149859534576535,0,
00:00:11.608,-0.00548830814659595,0,
00:00:11.612,-0.0020781671628356,0,
00:00:11.616,0.00569509388878942,0,
00:00:11.62,0.00309328502044082,0,
00:00:11.624,-0.0050562103278935,0,
00:00:11.628,-0.00302144070155919,0,
00:00:11.632,0.00479372870177031,0,
00:00:11.636,0.00271766888909042,0,
00:00:11.64,-0.00496045267209411,0,
00:00:11.644,-0.00271453987807035,0,
00:00:11.648,0.00507081253454089,0,
00:00:11.652,0.00284438719972968,0,
00:00:11.656,-0.0029079110827297,0,
00:00:11.66,-0.00687024323269725,0,
00:00:11.664,0.00529529200866818,0,
00:00:11.668,0.00424430845305324,0,
00:00:11.672,-0.00189985032193363,0,
00:00:11.676,-0.00666082417592406,0,
00:00:11.68,0.00285764713771641,0,
00:00:11.684,0.00777286943048239,0,
00:00:11.688,-0.0026059087831527,0,
00:00:11.692,-0.00616195192560554,0,
00:00:11.696,-4.12979898101185E-05,0,
00:00:11.7,0.00405033584684134,0,
00:00:11.704,-0.000257019681157544,0,
00:00:11.708,-0.00305567216128111,0,
00:00:11.712,-0.00261126551777124,0,
00:00:11.716,0.00992343667894602,0,
00:00:11.72,0.00202167546376586,0,
00:00:11.724,-0.00747332163155079,0,
00:00:11.728,-0.00469611957669258,0,
00:00:11.732,0.00441986368969083,0,
00:00:11.736,0.00328611140139401,0,
00:00:11.74,-0.00409952783957124,0,
00:00:11.744,5.80136338612647E-06,0,
00:00:11.748,0.00124838971532881,0,
00:00:11.752,0.0051334984600544,0,
00:00:11.756,-0.00576992565765977,0,
00:00:11.76,-0.00369162601418793,0,
00:00:11.764,0.00276576518081129,0,
00:00:11.768,0.00727396039292216,0,
00:00:11.772,-0.00477737095206976,0,
00:00:11.776,-0.00392661849036813,0,
00:00:11.78,0.00193130830302835,0,
00:00:11.784,0.00649222591891885,0,
00:00:11.788,-0.00308056897483766,0,
00:00:11.792,-0.007936199195683,0,
00:00:11.796,0.00254585943184793,0,
00:00:11.8,0.00618754234164953,0,
00:00:11.804,0.00218165549449623,0,
00:00:11.808,-0.00804176926612854,0,
00:00:11.812,0.000621518818661571,0,
00:00:11.816,0.00659766653552651,0,
00:00:11.82,-0.000436901056673378,0,
00:00:11.824,-0.00942540727555752,0,
00:00:11.828,-0.000967163825407624,0,
00:00:11.832,0.00794047396630049,0,
00:00:11.836,0.00450191181153059,0,
00:00:11.84,-0.00491856224834919,0,
00:00:11.844,-0.00372329377569258,0,
00:00:11.848,0.00390903046354651,0,
00:00:11.852,0.0021203332580626,0,
00:00:11.856,-0.00512189138680696,0,
00:00:11.86,-0.00462064845487475,0,
00:00:11.864,0.00734014296904206,0,
00:00:11.868,0.00680429767817259,0,
00:00:11.872,-0.00667356792837381,0,
00:00:11.876,-0.00532002979889512,0,
00:00:11.88,0.00159959937445819,0,
00:00:11.884,0.00695730559527874,0,
00:00:11.888,-0.00235753390006721,0,
00:00:11.892,-0.00531199108809233,0,
00:00:11.896,-0.00130594579968601,0,
00:00:11.9,0.00642346497625113,0,
00:00:11.904,0.00341407349333167,0,
00:00:11.908,-0.00515961274504662,0,
00:00:11.912,-0.00335585325956345,0,
00:00:11.916,0.00653002969920635,0,
00:00:11.92,0.000539728440344334,0,
00:00:11.924,-0.00871611200273037,0,
00:00:11.928,-0.00291794701479375,0,
00:00:11.932,0.0117143094539642,0,
00:00:11.936,0.00379684031940997,0,
00:00:11.94,-0.00663007516413927,0,
00:00:11.944,-0.00479665724560618,0,
00:00:11.948,0.00173820089548826,0,
00:00:11.952,0.00670732976868749,0,
00:00:11.956,-0.00479685608297586,0,
00:00:11.96,-0.00565719604492188,0,
00:00:11.964,0.00641736527904868,0,
00:00:11.968,0.00647348444908857,0,
00:00:11.972,-0.00650548236444592,0,
00:00:11.976,-0.00495196226984262,0,
00:00:11.98,0.0019066403619945,0,
00:00:11.984,0.00708342343568802,0,
00:00:11.988,-0.00447462080046535,0,
00:00:11.992,-0.00346179003827274,0,
00:00:11.996,0.00228990591131151,0,
00:00:12,0.00455685518682003,0,
00:00:12.004,-0.00115425896365196,0,
00:00:12.008,-0.00435800384730101,0,
00:00:12.012,-0.00146130681969225,0,
00:00:12.016,0.00768154812976718,0,
00:00:12.02,0.000637916033156216,0,
00:00:12.024,-0.00718324212357402,0,
00:00:12.028,-0.00345890573225915,0,
00:00:12.032,0.00563240749761462,0,
00:00:12.036,0.0039003815036267,0,
00:00:12.04,-0.00414465833455324,0,
00:00:12.044,-0.00250795180909336,0,
00:00:12.048,0.00480643147602677,0,
00:00:12.052,0.00240490934811533,0,
00:00:12.056,-0.00534276338294148,0,
00:00:12.06,-0.00297930487431586,0,
00:00:12.064,0.00498621584847569,0,
00:00:12.068,0.00290078879334033,0,
00:00:12.072,-0.00279338867403567,0,
00:00:12.076,-0.00677086319774389,0,
00:00:12.08,0.00326742581091821,0,
00:00:12.084,0.00829270109534264,0,
00:00:12.088,-0.00226424890570343,0,
00:00:12.092,-0.0081601794809103,0,
00:00:12.096,0.00181639555376023,0,
00:00:12.1,0.00758325029164553,0,
00:00:12.104,-0.00220173271372914,0,
00:00:12.108,-0.00560208223760128,0,
00:00:12.112,0.000349877343978733,0,
00:00:12.116,0.00416167033836246,0,
00:00:12.12,-0.000364581501344219,0,
00:00:12.124,-0.00324870855547488,0,
00:00:12.128,-0.000697191688232124,0,
00:00:12.132,0.00579780619591475,0,
00:00:12.136,0.00236324430443347,0,
00:00:12.14,-0.00595517782494426,0,
00:00:12.144,-0.00361978425644338,0,
00:00:12.148,0.00463905185461044,0,
00:00:12.152,0.00289559457451105,0,
00:00:12.156,-0.00258512049913406,0,
00:00:12.16,-0.00652197701856494,0,
00:00:12.164,0.00343530788086355,0,
00:00:12.168,0.00834183674305677,0,
00:00:12.172,-0.00230548926629126,0,
00:00:12.176,-0.00823656842112541,0,
00:00:12.18,0.00382799445651472,0,
00:00:12.184,0.00350263412110507,0,
00:00:12.188,-0.00186504051089287,0,
00:00:12.192,-0.00619166810065508,0,
00:00:12.196,0.00336745101958513,0,
00:00:12.2,0.00807796511799097,0,
00:00:12.204,-0.00255739944986999,0,
00:00:12.208,-0.00836317427456379,0,
00:00:12.212,-0.000316466786898673,0,
00:00:12.216,0.00961442198604345,0,
00:00:12.22,0.00161539623513818,0,
00:00:12.224,-0.00939352344721556,0,
00:00:12.228,-0.00219779997132719,0,
00:00:12.232,0.00864525325596333,0,
00:00:12.236,0.00173950428143144,0,
00:00:12.24,-0.00661487318575382,0,
00:00:12.244,-0.00347252748906612,0,
00:00:12.248,0.0052927159704268,0,
00:00:12.252,0.00352930417284369,0,
00:00:12.256,-0.00436463346704841,0,
00:00:12.26,-0.00253909779712558,0,
00:00:12.264,0.00490216491743922,0,
00:00:12.268,0.00253511918708682,0,
00:00:12.272,-0.00524776568636298,0,
00:00:12.276,-0.00294552370905876,0,
00:00:12.28,0.00289394240826368,0,
00:00:12.284,0.00483729271218181,0,
00:00:12.288,-0.00118656153790653,0,
00:00:12.292,-0.00661181891337037,0,
00:00:12.296,0.00450027035549283,0,
00:00:12.3,0.00322425412014127,0,
00:00:12.304,-0.000473752152174711,0,
00:00:12.308,-0.0087443171069026,0,
00:00:12.312,0.0014971619239077,0,
00:00:12.316,0.00592200271785259,0,
00:00:12.32,0.00259362952783704,0,
00:00:12.324,-0.00534716481342912,0,
00:00:12.328,-0.00299043161794543,0,
00:00:12.332,0.00497229350730777,0,
00:00:12.336,0.00286446860991418,0,
00:00:12.34,-0.00492605101317167,0,
00:00:12.344,-0.00277881277725101,0,
00:00:12.348,0.00496714469045401,0,
00:00:12.352,0.00483377790078521,0,
00:00:12.356,-0.00699985912069678,0,
00:00:12.36,-0.00445839064195752,0,
00:00:12.364,0.00273619964718819,0,
00:00:12.368,0.00562695320695639,0,
00:00:12.372,-0.000231507758144289,0,
00:00:12.376,-0.00395830534398556,0,
00:00:12.38,0.00051222339970991,0,
00:00:12.384,0.00326592451892793,0,
00:00:12.388,-0.00147171400021762,0,
00:00:12.392,-0.00603198865428567,0,
00:00:12.396,0.00322152674198151,0,
00:00:12.4,0.00782388355582953,0,
00:00:12.404,-0.0027359516825527,0,
00:00:12.408,-0.00632037874311209,0,
00:00:12.412,-0.00428586918860674,0,
00:00:12.416,0.0121453385800123,0,
00:00:12.42,0.00120191823225468,0,
00:00:12.424,-0.0078978119418025,0,
00:00:12.428,-0.00417258962988853,0,
00:00:12.432,0.00534008862450719,0,
00:00:12.436,0.00190689298324287,0,
00:00:12.44,-0.00192670081742108,0,
00:00:12.444,-0.00065520394127816,0,
00:00:12.448,0.0050710765644908,0,
00:00:12.452,0.00153256475459784,0,
00:00:12.456,-0.00645948760211468,0,
00:00:12.46,-0.00369702698662877,0,
00:00:12.464,0.00485539762303233,0,
00:00:12.468,0.00319581315852702,0,
00:00:12.472,-0.00443842681124806,0,
00:00:12.476,-0.00238864962011576,0,
00:00:12.48,0.00306712300516665,0,
00:00:12.484,0.00678843120113015,0,
00:00:12.488,-0.00548279518261552,0,
00:00:12.492,-0.00441314745694399,0,
00:00:12.496,0.00181436445564032,0,
00:00:12.5,0.00666074361652136,0,
00:00:12.504,-0.00280778179876506,0,
00:00:12.508,-0.0077152312733233,0,
00:00:12.512,0.000567546638194472,0,
00:00:12.516,0.0122983511537313,0,
00:00:12.52,-0.000202413211809471,0,
00:00:12.524,-0.0091508524492383,0,
00:00:12.528,-0.00467221112921834,0,
00:00:12.532,0.00342976348474622,0,
00:00:12.536,0.00849738344550133,0,
00:00:12.54,-0.00381630612537265,0,
00:00:12.544,-0.00356259802356362,0,
00:00:12.548,0.00385248963721097,0,
00:00:12.552,0.00204487121663988,0,
00:00:12.556,-0.00519174244254828,0,
00:00:12.56,-0.00261436682194471,0,
00:00:12.564,0.00322373234666884,0,
00:00:12.568,0.00708708353340626,0,
00:00:12.572,-0.00316111044958234,0,
00:00:12.576,-0.00835833419114351,0,
00:00:12.58,0.00212475308217108,0,
00:00:12.584,0.00803686305880547,0,
00:00:12.588,-0.0039532077498734,0,
00:00:12.592,-0.00353054841980338,0,
00:00:12.596,0.00190601916983724,0,
00:00:12.6,0.00417956570163369,0,
00:00:12.604,0.000733261927962303,0,
00:00:12.608,-0.00839116424322128,0,
00:00:12.612,0.00108658301178366,0,
00:00:12.616,0.00732494378462434,0,
00:00:12.62,-0.0019621339160949,0,
00:00:12.624,-0.00517616281285882,0,
00:00:12.628,-0.00140074791852385,0,
00:00:12.632,0.00624007172882557,0,
00:00:12.636,0.00326722790487111,0,
00:00:12.64,-0.00521470233798027,0,
00:00:12.644,-0.00125347112771124,0,
00:00:12.648,0.000468353799078614,0,
00:00:12.652,0.00290913600474596,0,
00:00:12.656,-0.00142497813794762,0,
00:00:12.66,-0.00566962687298656,0,
00:00:12.664,0.00568010052666068,0,
00:00:12.668,0.00397305097430944,0,
00:00:12.672,-0.00242009153589606,0,
00:00:12.676,-0.00500811403617263,0,
00:00:12.68,0.000710969266947359,0,
00:00:12.684,0.0041119079105556,0,
00:00:12.688,-0.00063807045808062,0,
00:00:12.692,-0.00351295154541731,0,
00:00:12.696,-0.000821242691017687,0,
00:00:12.7,0.00582294398918748,0,
00:00:12.704,0.00247247028164566,0,
00:00:12.708,-0.00584000488743186,0,
00:00:12.712,-0.00354903121478856,0,
00:00:12.716,0.00465401029214263,0,
00:00:12.72,0.00287165679037571,0,
00:00:12.724,-0.00469729118049145,0,
00:00:12.728,-0.00249894126318395,0,
00:00:12.732,0.00516664097085595,0,
00:00:12.736,0.00282922596670687,0,
00:00:12.74,-0.00505720265209675,0,
00:00:12.744,-0.00289520807564259,0,
00:00:12.748,0.00491710705682635,0,
00:00:12.752,0.00277189863845706,0,
00:00:12.756,-0.00290192547254264,0,
00:00:12.76,-0.00474516861140728,0,
00:00:12.764,0.00129766145255417,0,
00:00:12.768,0.00668633915483952,0,
00:00:12.772,-0.00447911256924272,0,
00:00:12.776,-0.00324336742050946,0,
00:00:12.78,0.00251509109511971,0,
00:00:12.784,0.00674038892611861,0,
00:00:12.788,-0.00315210712142289,0,
00:00:12.792,-0.00817299634218216,0,
00:00:12.796,0.00230986159294844,0,
00:00:12.8,0.00812738388776779,0,
00:00:12.804,-0.00188910495489836,0,
00:00:12.808,-0.00765185989439487,0,
00:00:12.812,0.00216344161890447,0,
00:00:12.816,0.00767321884632111,0,
00:00:12.82,-0.00230829557403922,0,
00:00:12.824,-0.00578146101906896,0,
00:00:12.828,-0.00187237991485745,0,
00:00:12.832,0.00607210118323565,0,
00:00:12.836,0.00336377625353634,0,
00:00:12.84,-0.00499688554555178,0,
00:00:12.844,-0.00313021917827427,0,
00:00:12.848,0.00669942190870643,0,
00:00:12.852,-0.00147069175727665,0,
00:00:12.856,-0.0026122136041522,0,
00:00:12.86,-0.00321540050208569,0,
00:00:12.864,0.00241915439255536,0,
00:00:12.868,0.00487566413357854,0,
00:00:12.872,-0.000791717611718923,0,
00:00:12.876,-0.00413387035951018,0,
00:00:12.88,0.000638294091913849,0,
00:00:12.884,0.00558389956131577,0,
00:00:12.888,-0.00532250059768558,0,
00:00:12.892,-0.00353691331110895,0,
00:00:12.896,0.00269136647693813,0,
00:00:12.9,0.00505160866305232,0,
00:00:12.904,0.00124843779485673,0,
00:00:12.908,-0.00832667108625174,0,
00:00:12.912,0.000848752970341593,0,
00:00:12.916,0.00700725428760052,0,
00:00:12.92,-0.00219223205931485,0,
00:00:12.924,-0.00525695877149701,0,
00:00:12.928,-0.00135971454437822,0,
00:00:12.932,0.00633472949266434,0,
00:00:12.936,0.00335263065062463,0,
00:00:12.94,-0.00517135765403509,0,
00:00:12.944,-0.00332909659482539,0,
00:00:12.948,0.0044942987151444,0,
00:00:12.952,0.00254670833237469,0,
00:00:12.956,-0.00498472200706601,0,
00:00:12.96,-0.00264315330423415,0,
00:00:12.964,0.00309162167832255,0,
00:00:12.968,0.00696538668125868,0,
00:00:12.972,-0.00321685872040689,0,
00:00:12.976,-0.00834796670824289,0,
00:00:12.98,0.00217084120959044,0,
00:00:12.984,0.00808458123356104,0,
00:00:12.988,-0.00184911384712905,0,
00:00:12.992,-0.00550106354057789,0,
00:00:12.996,0.00025294316583313,0,
00:00:13,0.00398694351315498,0,
00:00:13.004,0.00156442879233509,0,
00:00:13.008,-0.0052920114248991,0,
00:00:13.012,-0.00233211577869952,0,
00:00:13.016,0.00566872488707304,0,
00:00:13.02,0.00325723947025836,0,
00:00:13.024,-0.00489634927362204,0,
00:00:13.028,-0.0029831426218152,0,
00:00:13.032,0.00678528472781181,0,
00:00:13.036,-0.00147300178650767,0,
00:00:13.04,-0.00474902661517262,0,
00:00:13.044,-0.00131302769295871,0,
00:00:13.048,0.00608684355393052,0,
00:00:13.052,0.00306159327737987,0,
00:00:13.056,-0.00534131983295083,0,
00:00:13.06,-0.00334132136777043,0,
00:00:13.064,0.00458721397444606,0,
00:00:13.068,0.00266488967463374,0,
00:00:13.072,-0.00490095419809222,0,
00:00:13.076,-0.00261491839773953,0,
00:00:13.08,0.00307541061192751,0,
00:00:13.084,0.00485437829047441,0,
00:00:13.088,0.000803000817541033,0,
00:00:13.092,-0.00869676284492016,0,
00:00:13.096,0.000706165679730475,0,
00:00:13.1,0.00707425316795707,0,
00:00:13.104,-0.00202329643070698,0,
00:00:13.108,-0.00717292120680213,0,
00:00:13.112,0.00277881301008165,0,
00:00:13.116,0.00600954052060843,0,
00:00:13.12,-0.000229797151405364,0,
00:00:13.124,-0.00426865182816982,0,
00:00:13.128,0.000167101388797164,0,
00:00:13.132,0.0030815287027508,0,
00:00:13.136,0.000618938764091581,0,
00:00:13.14,-0.00579061871394515,0,
00:00:13.144,-0.00230920012108982,0,
00:00:13.148,0.00601343018934131,0,
00:00:13.152,0.0036554979160428,0,
00:00:13.156,-0.00463184434920549,0,
00:00:13.16,-0.00290814507752657,0,
00:00:13.164,0.00256641022861004,0,
00:00:13.168,0.00443192338570952,0,
00:00:13.172,-0.00146553292870522,0,
00:00:13.176,-0.00669785495847464,0,
00:00:13.18,0.00456379260867834,0,
00:00:13.184,0.00334793352521956,0,
00:00:13.188,-0.00451954547315836,0,
00:00:13.192,-0.00266799842938781,0,
00:00:13.196,0.00280173355713487,0,
00:00:13.2,0.00667580729350448,0,
00:00:13.204,-0.00335681438446045,0,
00:00:13.208,-0.00832485686987638,0,
00:00:13.212,0.000211762628168799,0,
00:00:13.216,0.01226079557091,0,
00:00:13.22,-2.87624970951583E-05,0,
00:00:13.224,-0.0109998611733317,0,
00:00:13.228,-0.0025347345508635,0,
00:00:13.232,0.00720289535820484,0,
00:00:13.236,0.0045925285667181,0,
00:00:13.24,-0.00439368560910225,0,
