Elapsed Time,Ch1,BioRadio Event,
00:00:00,1.37624216079712,0,
00:00:00.004,-1.30756294727325,0,
00:00:00.008,-1.08857405185699,0,
00:00:00.012,-0.120993852615356,0,
00:00:00.016,0.552762746810913,0,
00:00:00.02,0.688012778759003,0,
00:00:00.024,0.423319011926651,0,
00:00:00.028,0.0504644475877285,0,
00:00:00.032,-0.202448099851608,0,
00:00:00.036,-0.269090443849564,0,
00:00:00.04,-0.194595038890839,0,
00:00:00.044,-0.0805039629340172,0,
00:00:00.048,0.028291841968894,0,
00:00:00.052,0.0748685300350189,0,
00:00:00.056,0.0825697258114815,0,
00:00:00.06,0.0411475338041782,0,
00:00:00.064,-0.00670735072344542,0,
00:00:00.068,-0.0202466677874327,0,
00:00:00.072,-0.0202517118304968,0,
00:00:00.076,-0.0169356986880302,0,
00:00:00.08,-0.00819870363920927,0,
00:00:00.084,0.00329387071542442,0,
00:00:00.088,0.0133387744426727,0,
00:00:00.092,0.0108442464843392,0,
00:00:00.096,-0.00492433598265052,0,
00:00:00.1,-0.00760203320533037,0,
00:00:00.104,0.00437767896801233,0,
00:00:00.108,0.00523287709802389,0,
00:00:00.112,-0.00471922289580107,0,
00:00:00.116,-0.00865101907402277,0,
00:00:00.12,0.00279216933995485,0,
00:00:00.124,0.00896809250116348,0,
00:00:00.128,-0.00122297497000545,0,
00:00:00.132,-0.00739544397220016,0,
00:00:00.136,0.00205610739067197,0,
00:00:00.14,0.00531581463292241,0,
00:00:00.144,0.00147652917075902,0,
00:00:00.148,-0.00833501853048801,0,
00:00:00.152,-0.00137384457048029,0,
00:00:00.156,0.00884088780730963,0,
00:00:00.16,0.00146919523831457,0,
00:00:00.164,-0.00702357897534966,0,
00:00:00.168,-0.00584307406097651,0,
00:00:00.172,0.00717972684651613,0,
00:00:00.176,0.00524915382266045,0,
00:00:00.18,-0.00611816393211484,0,
00:00:00.184,0.000793132756371051,0,
00:00:00.188,0.00360003323294222,0,
00:00:00.192,0.000435200927313417,0,
00:00:00.196,-0.00638858368620276,0,
00:00:00.2,-0.00287240068428218,0,
00:00:00.204,0.00367327546700835,0,
00:00:00.208,0.00775867467746139,0,
00:00:00.212,-0.00680924393236637,0,
00:00:00.216,-0.00215190090239048,0,
00:00:00.22,0.00541710434481502,0,
00:00:00.224,0.00455865729600191,0,
00:00:00.228,-0.00765364244580269,0,
00:00:00.232,-0.00502137048169971,0,
00:00:00.236,0.0025126077234745,0,
00:00:00.24,0.00573051813989878,0,
00:00:00.244,-0.00203774450346828,0,
00:00:00.248,-0.00379819027148187,0,
00:00:00.252,0.00635316036641598,0,
00:00:00.256,0.00312976306304336,0,
00:00:00.26,-0.00176635349635035,0,
00:00:00.264,-0.0101387677714229,0,
00:00:00.268,-0.00137223361525685,0,
00:00:00.272,0.00991680659353733,0,
00:00:00.276,0.0026858348865062,0,
00:00:00.28,-0.00627425312995911,0,
00:00:00.284,-0.00363153824582696,0,
00:00:00.288,0.00491265812888741,0,
00:00:00.292,0.00318556046113372,0,
00:00:00.296,-0.00246226042509079,0,
00:00:00.3,-0.00658873841166496,0,
00:00:00.304,0.00326312519609928,0,
00:00:00.308,0.00817004591226578,0,
00:00:00.312,-0.00240867584943771,0,
00:00:00.316,-0.00825746543705463,0,
00:00:00.32,0.00386349461041391,0,
00:00:00.324,0.00355572369880974,0,
00:00:00.328,-0.00182443810626864,0,
00:00:00.332,-0.00617574993520975,0,
00:00:00.336,0.00336214178241789,0,
00:00:00.34,0.00806254986673594,0,
00:00:00.344,-0.000496309192385525,0,
00:00:00.348,-0.0103464452549815,0,
00:00:00.352,-0.00195909943431616,0,
00:00:00.356,0.00736557180061936,0,
00:00:00.36,0.00443838350474834,0,
00:00:00.364,-0.00464469334110618,0,
00:00:00.368,-0.00336450454778969,0,
00:00:00.372,0.0041655614040792,0,
00:00:00.376,0.00220764800906181,0,
00:00:00.38,-0.00517084309831262,0,
00:00:00.384,-0.004728261847049,0,
00:00:00.388,0.00932018551975489,0,
00:00:00.392,0.00270548812113702,0,
00:00:00.396,-0.00633943825960159,0,
00:00:00.4,-0.00590193597599864,0,
00:00:00.404,0.00670332415029407,0,
00:00:00.408,0.00682998728007078,0,
00:00:00.412,-0.0062902644276619,0,
00:00:00.416,-0.0069875200279057,0,
00:00:00.42,0.00588503573089838,0,
00:00:00.424,0.00457280082628131,0,
00:00:00.428,-0.00195952202193439,0,
00:00:00.432,-0.00483540538698435,0,
00:00:00.436,0.000658756413031369,0,
00:00:00.44,0.00396825606003404,0,
00:00:00.444,-0.000761675997637212,0,
00:00:00.448,-0.00356516381725669,0,
00:00:00.452,0.00126971723511815,0,
00:00:00.456,0.00389708182774484,0,
00:00:00.46,-0.00119657278992236,0,
00:00:00.464,-0.00401414325460792,0,
00:00:00.468,0.00309065589681268,0,
00:00:00.472,-0.000180021204869263,0,
00:00:00.476,0.00133455859031528,0,
00:00:00.48,-0.0043667983263731,0,
00:00:00.484,-0.00157183443661779,0,
00:00:00.488,0.00589088629931211,0,
00:00:00.492,0.000990451546385884,0,
00:00:00.496,-0.00117263791617006,0,
00:00:00.5,-0.00356153957545757,0,
00:00:00.504,0.00109090062323958,0,
00:00:00.508,0.00567046646028757,0,
00:00:00.512,-0.00548080774024129,0,
00:00:00.516,-0.00374185340479016,0,
00:00:00.52,0.0025712694041431,0,
00:00:00.524,0.00504779303446412,0,
00:00:00.528,0.00132230808958411,0,
00:00:00.532,-0.00823531020432711,0,
00:00:00.536,-0.0011631086235866,0,
00:00:00.54,0.00900354236364365,0,
00:00:00.544,0.00151256856042892,0,
00:00:00.548,-0.00708254938945174,0,
00:00:00.552,-0.00386845506727695,0,
00:00:00.556,0.00511831557378173,0,
00:00:00.56,0.00564101198688149,0,
00:00:00.564,-0.00619335938245058,0,
00:00:00.568,-0.00610712636262178,0,
00:00:00.572,0.00678836414590478,0,
00:00:00.576,0.00503406580537558,0,
00:00:00.58,-0.00407809251919389,0,
00:00:00.584,-0.00320641580037773,0,
00:00:00.588,0.00398792466148734,0,
00:00:00.592,-0.000158276452566497,0,
00:00:00.596,-0.00133781752083451,0,
00:00:00.6,-0.00305789243429899,0,
00:00:00.604,0.00177856686059386,0,
00:00:00.608,0.00409771036356688,0,
00:00:00.612,-0.00332580204121768,0,
00:00:00.616,-0.00218647415749729,0,
00:00:00.62,0.00254288199357688,0,
00:00:00.624,0.00609401427209377,0,
00:00:00.628,-0.00385223678313196,0,
00:00:00.632,-0.00853408221155405,0,
00:00:00.636,0.00442607514560223,0,
00:00:00.64,0.00436145393177867,0,
00:00:00.644,-0.00123648473527282,0,
00:00:00.648,-0.00597876030951738,0,
00:00:00.652,0.00323912431485951,0,
00:00:00.656,0.00572590762749314,0,
00:00:00.66,-0.000827832380309701,0,
00:00:00.664,-0.00684413546696305,0,
00:00:00.668,0.00401352625340223,0,
00:00:00.672,0.0048945383168757,0,
00:00:00.676,-0.00468800449743867,0,
00:00:00.68,-0.00627287151291966,0,
00:00:00.684,-0.000913840543944389,0,
00:00:00.688,0.00536878034472466,0,
00:00:00.692,0.00838965643197298,0,
00:00:00.696,-0.00504650315269828,0,
00:00:00.7,-0.00486185727640986,0,
00:00:00.704,0.00311723188497126,0,
00:00:00.708,0.00198335968889296,0,
00:00:00.712,-0.00689393421635032,0,
00:00:00.716,-0.0001647045428399,0,
00:00:00.72,0.00727381138131022,0,
00:00:00.724,0.00332038872875273,0,
00:00:00.728,-0.00581640750169754,0,
00:00:00.732,-0.0040136156603694,0,
00:00:00.736,0.00205551111139357,0,
00:00:00.74,0.00453871721401811,0,
00:00:00.744,-0.00101478979922831,0,
00:00:00.748,-0.00414964556694031,0,
00:00:00.752,-0.00127470516599715,0,
00:00:00.756,0.00571576505899429,0,
00:00:00.76,0.00263953814283013,0,
00:00:00.764,-0.00349557027220726,0,
00:00:00.768,-0.00738167529925704,0,
00:00:00.772,0.00508480938151479,0,
00:00:00.776,0.00432227225974202,0,
00:00:00.78,-0.00582682806998491,0,
00:00:00.784,-0.000415302289184183,0,
00:00:00.788,0.00844185333698988,0,
00:00:00.792,0.000474165775813162,0,
00:00:00.796,-0.00790713634341955,0,
00:00:00.8,-0.00418297806754708,0,
00:00:00.804,0.00525423604995012,0,
00:00:00.808,0.00391448196023703,0,
00:00:00.812,-0.0018147035734728,0,
00:00:00.816,-0.00626492546871305,0,
00:00:00.82,0.00325911934487522,0,
00:00:00.824,0.00797613617032766,0,
00:00:00.828,-0.00263040908612311,0,
00:00:00.832,-0.00840029586106539,0,
00:00:00.836,0.00175233068875968,0,
00:00:00.84,0.00764945056289434,0,
00:00:00.844,-1.20147406050819E-05,0,
00:00:00.848,-0.00956023018807173,0,
00:00:00.852,-0.00135183101519942,0,
00:00:00.856,0.00967056676745415,0,
00:00:00.86,0.000289738381979987,0,
00:00:00.864,-0.00663754204288125,0,
00:00:00.868,0.00191782461479306,0,
00:00:00.872,0.00472776871174574,0,
00:00:00.876,-0.0011552955256775,0,
00:00:00.88,-0.00454786000773311,0,
00:00:00.884,0.000410207867389545,0,
00:00:00.888,0.00353838666342199,0,
00:00:00.892,-0.00106535933446139,0,
00:00:00.896,-0.0036278385668993,0,
00:00:00.9,0.0034728164318949,0,
00:00:00.904,4.1204064473277E-05,0,
00:00:00.908,-0.000706940481904894,0,
00:00:00.912,-0.000404775462811813,0,
00:00:00.916,-0.00202795048244298,0,
00:00:00.92,0.00226024189032614,0,
00:00:00.924,0.00398973654955626,0,
00:00:00.928,-0.00167533347848803,0,
00:00:00.932,-0.00459287920966744,0,
00:00:00.936,0.000653234077617526,0,
00:00:00.94,0.00380940153263509,0,
00:00:00.944,-0.000924561580177397,0,
00:00:00.948,-0.00571827916428447,0,
00:00:00.952,0.00741462036967278,0,
00:00:00.956,0.00166129774879664,0,
00:00:00.96,-0.00630249176174402,0,
00:00:00.964,-0.00318792508915067,0,
00:00:00.968,0.00124965375289321,0,
00:00:00.972,0.00950851663947105,0,
00:00:00.976,-0.00109507970046252,0,
00:00:00.98,-0.00590355927124619,0,
00:00:00.984,-0.00280063040554523,0,
00:00:00.988,0.00510315177962184,0,
00:00:00.992,0.00283333170227706,0,
00:00:00.996,-0.00500907050445676,0,
00:00:01,-0.0028141257353127,0,
00:00:01.004,0.00293033896014094,0,
00:00:01.008,0.0068931165151298,0,
00:00:01.012,-0.00527419801801443,0,
00:00:01.016,-0.00422966433688998,0,
00:00:01.02,0.00190594070591033,0,
00:00:01.024,0.00458404095843434,0,
00:00:01.028,-0.000886916241142899,0,
00:00:01.032,-0.00405976688489318,0,
00:00:01.036,0.000804824871011078,0,
00:00:01.04,0.00367667200043797,0,
00:00:01.044,-0.00116233306471258,0,
00:00:01.048,-0.00591245945543051,0,
00:00:01.052,0.00525519158691168,0,
00:00:01.056,0.0036543495953083,0,
00:00:01.06,-0.00251491391099989,0,
00:00:01.064,-0.00491585722193122,0,
00:00:01.068,0.000881177315022796,0,
00:00:01.072,0.00425841845571995,0,
00:00:01.076,-0.000566774455364794,0,
00:00:01.08,0.000635839416645467,0,
00:00:01.084,-0.00689242966473103,0,
00:00:01.088,0.00238830270245671,0,
00:00:01.092,0.00777980638667941,0,
00:00:01.096,-0.00431816652417183,0,
00:00:01.1,-0.00379150384105742,0,
00:00:01.104,0.00180781888775527,0,
00:00:01.108,0.00420732842758298,0,
00:00:01.112,-0.00333669013343751,0,
00:00:01.116,-0.000215398977161385,0,
00:00:01.12,0.000455053494079039,0,
00:00:01.124,0.00439140433445573,0,
00:00:01.128,-0.00402661925181746,0,
00:00:01.132,-0.00972437765449286,0,
00:00:01.136,0.00540335243567824,0,
00:00:01.14,0.010719109326601,0,
00:00:01.144,0.000775078660808504,0,
00:00:01.148,-0.0105705438181758,0,
00:00:01.152,-0.00294995540753007,0,
00:00:01.156,0.0063936160877347,0,
00:00:01.16,0.00600539799779654,0,
00:00:01.164,-0.00869359076023102,0,
00:00:01.168,-0.00271969148889184,0,
00:00:01.172,0.00807033758610487,0,
00:00:01.176,-0.000583139655645937,0,
00:00:01.18,-0.00666265143081546,0,
00:00:01.184,0.00240208255127072,0,
00:00:01.188,0.00736949173733592,0,
00:00:01.192,-0.00276794889941812,0,
00:00:01.196,-0.00610714918002486,0,
00:00:01.2,0.000113771871838253,0,
00:00:01.204,0.00211759656667709,0,
00:00:01.208,0.00386569811962545,0,
00:00:01.212,-0.00131580873858184,0,
00:00:01.216,-0.00402161339297891,0,
00:00:01.22,0.00108297541737556,0,
00:00:01.224,0.00393517268821597,0,
00:00:01.228,-0.00105878547765315,0,
00:00:01.232,-0.00388806383125484,0,
00:00:01.236,-0.00100202474277467,0,
00:00:01.24,0.00583759555593133,0,
00:00:01.244,0.000521561654750258,0,
00:00:01.248,-0.00372793758288026,0,
00:00:01.252,0.000254182232310995,0,
00:00:01.256,0.00287456018850207,0,
00:00:01.26,0.00035873829619959,0,
00:00:01.264,-0.00802126713097095,0,
00:00:01.268,0.00173049792647362,0,
00:00:01.272,0.00576568581163883,0,
00:00:01.276,0.00229979632422328,0,
00:00:01.28,-0.00557378958910704,0,
00:00:01.284,-0.00306650507263839,0,
00:00:01.288,0.00502453604713082,0,
00:00:01.292,0.00297296512871981,0,
00:00:01.296,-0.00482970802113414,0,
00:00:01.3,-0.00273039704188704,0,
00:00:01.304,0.00289110839366913,0,
00:00:01.308,0.00678049959242344,0,
00:00:01.312,-0.00539073348045349,0,
00:00:01.316,-0.00430267956107855,0,
00:00:01.32,0.00188805954530835,0,
00:00:01.324,0.00668131979182363,0,
00:00:01.328,-0.00490283267572522,0,
00:00:01.332,-0.00369838462211192,0,
00:00:01.336,0.00228176615200937,0,
00:00:01.34,0.00469383737072349,0,
00:00:01.344,-0.00306318770162761,0,
00:00:01.348,-0.00019262965361122,0,
00:00:01.352,0.000316215446218848,0,
00:00:01.356,0.00421500811353326,0,
00:00:01.36,-0.00415043765679002,0,
00:00:01.364,-0.0076889730989933,0,
00:00:01.368,0.00137785426340997,0,
00:00:01.372,0.0111055476590991,0,
00:00:01.376,0.00228652846999466,0,
00:00:01.38,-0.00745240831747651,0,
00:00:01.384,-0.00474144378677011,0,
00:00:01.388,0.00226429500617087,0,
00:00:01.392,0.00723874010145664,0,
00:00:01.396,-0.00245000422000885,0,
00:00:01.4,-0.00765163358300924,0,
00:00:01.404,0.00458343094214797,0,
00:00:01.408,0.00400492362678051,0,
00:00:01.412,-0.00175079877953976,0,
00:00:01.416,-0.00636870646849275,0,
00:00:01.42,0.0030879327096045,0,
00:00:01.424,0.00785471312701702,0,
00:00:01.428,-0.00265345978550613,0,
00:00:01.432,-0.00626837508752942,0,
00:00:01.436,-0.00221378286369145,0,
00:00:01.44,0.00805137492716312,0,
00:00:01.444,-0.000591747986618429,0,
00:00:01.448,-0.0065688700415194,0,
00:00:01.452,0.00045280295307748,0,
00:00:01.456,0.0115027530118823,0,
00:00:01.46,-0.00309140887111425,0,
00:00:01.464,-0.0076167294755578,0,
00:00:01.468,-0.00304354843683541,0,
00:00:01.472,0.00593624170869589,0,
00:00:01.476,0.00390965677797794,0,
00:00:01.48,-0.00430318154394627,0,
00:00:01.484,-0.00266671646386385,0,
00:00:01.488,0.00474043376743793,0,
00:00:01.492,0.0024368732701987,0,
00:00:01.496,-0.00525908404961228,0,
00:00:01.5,-0.00289750006049871,0,
00:00:01.504,0.000881804968230426,0,
00:00:01.508,0.0130859529599547,0,
00:00:01.512,-0.00753019563853741,0,
00:00:01.516,-0.00939391274005175,0,
00:00:01.52,0.00474941963329911,0,
00:00:01.524,0.00488470867276192,0,
00:00:01.528,-0.00302441301755607,0,
00:00:01.532,-0.00193552603013813,0,
00:00:01.536,0.00272640353068709,0,
00:00:01.54,0.00406415248289704,0,
00:00:01.544,-0.00196419795975089,0,
00:00:01.548,-0.00496907299384475,0,
00:00:01.552,0.000411508517572656,0,
00:00:01.556,0.00377130229026079,0,
00:00:01.56,0.00126207165885717,0,
00:00:01.564,-0.00753595819696784,0,
00:00:01.568,-0.00033399451058358,0,
00:00:01.572,0.00745901558548212,0,
00:00:01.576,0.00360419088974595,0,
00:00:01.58,-0.00354831223376095,0,
00:00:01.584,-0.00802627950906754,0,
00:00:01.588,0.00438677426427603,0,
00:00:01.592,0.00391135038807988,0,
00:00:01.596,-0.00172878592275083,0,
00:00:01.6,-0.00625581247732043,0,
00:00:01.604,0.00738288229331374,0,
00:00:01.608,0.00194362504407763,0,
00:00:01.612,-0.00598040642216802,0,
00:00:01.616,-0.00300220306962729,0,
00:00:01.62,0.00541351642459631,0,
00:00:01.624,0.00338006787933409,0,
00:00:01.628,-0.00253258319571614,0,
00:00:01.632,-0.00678200740367174,0,
00:00:01.636,-0.00106857030186802,0,
00:00:01.64,0.0120270270854235,0,
00:00:01.644,0.00710069853812456,0,
00:00:01.648,-0.0137765444815159,0,
00:00:01.652,-0.00476149376481771,0,
00:00:01.656,0.00298592750914395,0,
00:00:01.66,0.00109588482882828,0,
00:00:01.664,-0.00309033202938735,0,
00:00:01.668,0.000842040230054408,0,
00:00:01.672,0.00580505607649684,0,
00:00:01.676,0.00985366385430098,0,
00:00:01.68,0.00433097081258893,0,
00:00:01.684,-0.0214518122375011,0,
00:00:01.688,-0.005533198826015,0,
00:00:01.692,0.00535729294642806,0,
00:00:01.696,0.00588553724810481,0,
00:00:01.7,-0.00346724805422127,0,
00:00:01.704,0.00150864431634545,0,
00:00:01.708,0.0113000757992268,0,
00:00:01.712,-0.00595308560878038,0,
00:00:01.716,-0.0085360174998641,0,
00:00:01.72,0.00212214607745409,0,
00:00:01.724,0.00769523391500115,0,
00:00:01.728,-0.00234379479661584,0,
00:00:01.732,-0.00788638927042484,0,
00:00:01.736,0.00220706081017852,0,
00:00:01.74,0.00789565965533257,0,
00:00:01.744,-0.0020566179882735,0,
00:00:01.748,-0.00768638122826815,0,
00:00:01.752,0.0022334773093462,0,
00:00:01.756,0.00570392515510321,0,
00:00:01.76,0.00182699016295373,0,
00:00:01.764,-0.00815486069768667,0,
00:00:01.768,-0.00136996770743281,0,
00:00:01.772,0.00874012615531683,0,
00:00:01.776,-0.000725312158465385,0,
00:00:01.78,-0.00512656476348639,0,
00:00:01.784,-7.05577404005453E-05,0,
00:00:01.788,0.00342752505093813,0,
00:00:01.792,0.00115937751252204,0,
00:00:01.796,-0.00746960146352649,0,
00:00:01.8,-0.000214435829548165,0,
00:00:01.804,0.0075466213747859,0,
00:00:01.808,0.00362888351082802,0,
00:00:01.812,-0.00357427354902029,0,
00:00:01.816,-0.0080721341073513,0,
00:00:01.82,0.00227266503497958,0,
00:00:01.824,0.00586905004456639,0,
00:00:01.828,-8.47080664243549E-05,0,
00:00:01.832,-0.00399031955748796,0,
00:00:01.836,0.000426736689405516,0,
00:00:01.84,0.00323275988921523,0,
00:00:01.844,-0.00142658001277596,0,
00:00:01.848,-0.00386534654535353,0,
00:00:01.852,-0.000741274270694703,0,
00:00:01.856,0.00821037217974663,0,
00:00:01.86,-0.00333521398715675,0,
00:00:01.864,-0.00334257469512522,0,
00:00:01.868,0.00166601256933063,0,
00:00:01.872,0.00380242546088994,0,
00:00:01.876,-0.00160730944480747,0,
00:00:01.88,-0.00440039066597819,0,
00:00:01.884,-0.00122185051441193,0,
00:00:01.888,0.00591919524595141,0,
00:00:01.892,0.0028407268691808,0,
00:00:01.896,-0.00338375684805214,0,
00:00:01.9,-0.00529519189149141,0,
00:00:01.904,0.000980325159616768,0,
00:00:01.908,0.00666326656937599,0,
00:00:01.912,-0.00430882116779685,0,
00:00:01.916,-0.00302791805006564,0,
00:00:01.92,0.00266651064157486,0,
00:00:01.924,0.00679002562537789,0,
00:00:01.928,-0.00525894248858094,0,
00:00:01.932,-0.00626260135322809,0,
00:00:01.936,0.00597078399732709,0,
00:00:01.94,0.00422551203519106,0,
00:00:01.944,-0.00239743618294597,0,
00:00:01.948,-0.0051211598329246,0,
00:00:01.952,-0.00147884234320372,0,
00:00:01.956,0.00604633800685406,0,
00:00:01.96,0.00311457505449653,0,
00:00:01.964,-0.00316314678639174,0,
00:00:01.968,-0.00521434238180518,0,
00:00:01.972,0.00508870836347342,0,
00:00:01.976,-0.00361551623791456,0,
00:00:01.98,-0.00175968103576452,0,
00:00:01.984,0.00564694218337536,0,
00:00:01.988,0.000930214591789991,0,
00:00:01.992,0.000983137870207429,0,
00:00:01.996,-0.00542819127440453,0,
00:00:02,-0.00464244605973363,0,
00:00:02.004,0.00736209703609347,0,
00:00:02.008,0.00679950043559074,0,
00:00:02.012,-0.00670055067166686,0,
00:00:02.016,-0.00534641835838556,0,
00:00:02.02,0.00158859812654555,0,
00:00:02.024,0.00488711101934314,0,
00:00:02.028,-0.000367601664038375,0,
00:00:02.032,-0.00365544226951897,0,
00:00:02.036,0.00095549738034606,0,
00:00:02.04,0.00360705330967903,0,
00:00:02.044,-0.00133446964900941,0,
00:00:02.048,-0.00399641040712595,0,
00:00:02.052,0.00111962296068668,0,
00:00:02.056,0.00398327969014645,0,
00:00:02.06,-0.00100556248798966,0,
00:00:02.064,-0.00384228955954313,0,
00:00:02.068,0.00110230885911733,0,
00:00:02.072,0.00387176475487649,0,
00:00:02.076,-0.00112482090480626,0,
00:00:02.08,-0.0039150333032012,0,
00:00:02.084,-0.00098780426196754,0,
00:00:02.088,0.00794885773211718,0,
00:00:02.092,0.000656102783977985,0,
00:00:02.096,-0.00940193887799978,0,
00:00:02.1,0.000412753986893222,0,
00:00:02.104,0.00517381029203534,0,
00:00:02.108,0.000319173122989014,0,
00:00:02.112,-0.00316268811002374,0,
00:00:02.116,-0.000996658811345696,0,
00:00:02.12,0.00542766647413373,0,
00:00:02.124,0.00213387398980558,0,
00:00:02.128,-0.00598894292488694,0,
00:00:02.132,-0.00144089502282441,0,
00:00:02.136,0.000730616797227412,0,
00:00:02.14,0.00333499303087592,0,
00:00:02.144,0.000995398033410311,0,
00:00:02.148,-0.00749353272840381,0,
00:00:02.152,0.00193643872626126,0,
00:00:02.156,0.00772885885089636,0,
00:00:02.16,-0.00410796422511339,0,
00:00:02.164,-0.00354149495251477,0,
00:00:02.168,0.00195242662448436,0,
00:00:02.172,0.00629003858193755,0,
00:00:02.176,-0.00332043529488146,0,
00:00:02.18,-0.00808934401720762,0,
00:00:02.184,0.00251295976340771,0,
00:00:02.188,0.00624115485697985,0,
00:00:02.192,0.00226382771506906,0,
00:00:02.196,-0.00797776598483324,0,
00:00:02.2,0.000647559121716768,0,
00:00:02.204,0.00451458292081952,0,
00:00:02.208,-0.000561022141482681,0,
00:00:02.212,-0.00167955551296473,0,
00:00:02.216,-0.00518733123317361,0,
00:00:02.22,0.0080404682084918,0,
00:00:02.224,0.00195015280041844,0,
00:00:02.228,-0.00427284790202975,0,
00:00:02.232,-0.0074457679875195,0,
00:00:02.236,0.00346379890106618,0,
00:00:02.24,0.00682979356497526,0,
00:00:02.244,0.00442310469225049,0,
00:00:02.248,-0.0102069722488523,0,
00:00:02.252,-0.00133295450359583,0,
00:00:02.256,0.00409964192658663,0,
00:00:02.26,-0.00186763948295265,0,
00:00:02.264,-0.000696320901624858,0,
00:00:02.268,0.00332092004828155,0,
00:00:02.272,0.00608387077227235,0,
00:00:02.276,-0.00433205021545291,0,
00:00:02.28,-0.00700992392376065,0,
00:00:02.284,-0.00205742195248604,0,
00:00:02.288,0.0065814470872283,0,
00:00:02.292,0.00405321642756462,0,
00:00:02.296,-0.00450576469302177,0,
00:00:02.3,-0.00297111202962697,0,
00:00:02.304,0.00451739178970456,0,
00:00:02.308,0.00236321333795786,0,
00:00:02.312,-0.00521066784858704,0,
00:00:02.316,-0.0048728734254837,0,
00:00:02.32,0.00917270500212908,0,
00:00:02.324,0.00261808652430773,0,
00:00:02.328,-0.00635474873706698,0,
00:00:02.332,-0.00586867518723011,0,
00:00:02.336,0.00675068795681,0,
00:00:02.34,0.0068652774207294,0,
00:00:02.344,-0.0062771700322628,0,
00:00:02.348,-0.00491723418235779,0,
00:00:02.352,0.00181993679143488,0,
00:00:02.356,0.0069689080119133,0,
00:00:02.36,-0.00247661606408656,0,
00:00:02.364,-0.00753370765596628,0,
00:00:02.368,0.00264560920186341,0,
00:00:02.372,0.00606035441160202,0,
00:00:02.376,0.00197280198335648,0,
00:00:02.38,-0.00613450165838003,0,
00:00:02.384,-0.00350275379605591,0,
00:00:02.388,0.00486898235976696,0,
00:00:02.392,0.000986361759714782,0,
00:00:02.396,-0.00057694356655702,0,
00:00:02.4,-0.00287910341285169,0,
00:00:02.404,0.00359880342148244,0,
00:00:02.408,0.00171425414737314,0,
00:00:02.412,-0.00529350899159908,0,
00:00:02.416,-0.0045781759545207,0,
00:00:02.42,0.00746634462848306,0,
00:00:02.424,0.00482799531891942,0,
00:00:02.428,-0.00467108096927404,0,
00:00:02.432,-0.00163662782870233,0,
00:00:02.436,-0.000258006155490875,0,
00:00:02.44,0.00442256452515721,0,
00:00:02.444,-0.00358580076135695,0,
00:00:02.448,-0.00717379525303841,0,
00:00:02.452,0.00163121649529785,0,
00:00:02.456,0.0110901491716504,0,
00:00:02.46,4.13117668358609E-05,0,
00:00:02.464,-0.00566539680585265,0,
00:00:02.468,-0.00321848131716251,0,
00:00:02.472,0.00448947167024016,0,
00:00:02.476,0.000306791363982484,0,
00:00:02.48,-0.0031851208768785,0,
00:00:02.484,0.000998685020022094,0,
00:00:02.488,0.00340932072140276,0,
00:00:02.492,0.00053592718904838,0,
00:00:02.496,-0.00605639768764377,0,
00:00:02.5,-0.00462953699752688,0,
00:00:02.504,0.00994497630745173,0,
00:00:02.508,0.00333071569912136,0,
00:00:02.512,-0.00601559830829501,0,
00:00:02.516,-0.00591425877064466,0,
00:00:02.52,0.00648856954649091,0,
00:00:02.524,0.00658383499830961,0,
00:00:02.528,-0.00645123468711972,0,
00:00:02.532,-0.00703030033037066,0,
00:00:02.536,0.00592955620959401,0,
00:00:02.54,0.00464925309643149,0,
00:00:02.544,0.000178588772541843,0,
00:00:02.548,-0.0088591706007719,0,
00:00:02.552,0.000987190171144903,0,
00:00:02.556,0.00748746795579791,0,
00:00:02.56,-0.00173930684104562,0,
00:00:02.564,-0.00711098127067089,0,
00:00:02.568,0.000593173259403557,0,
00:00:02.572,0.00988931860774755,0,
00:00:02.576,0.0013751705409959,0,
00:00:02.58,-0.00984505284577608,0,
00:00:02.584,-0.000509177800267935,0,
00:00:02.588,0.00648433761671185,0,
00:00:02.592,-0.00196708575822413,0,
00:00:02.596,-0.0046952273696661,0,
00:00:02.6,-0.000854075653478503,0,
00:00:02.604,0.00658091017976403,0,
00:00:02.608,0.00541128171607852,0,
00:00:02.612,-0.00731351645663381,0,
00:00:02.616,-0.00723107997328043,0,
00:00:02.62,0.00617680745199323,0,
00:00:02.624,0.00500523205846548,0,
00:00:02.628,-0.0016669409815222,0,
00:00:02.632,-0.00684794364497066,0,
00:00:02.636,0.0025246818549931,0,
00:00:02.64,0.00751749752089381,0,
00:00:02.644,-0.00476862024515867,0,
00:00:02.648,-0.0062060235068202,0,
00:00:02.652,0.00784726813435555,0,
00:00:02.656,0.00202560238540173,0,
00:00:02.66,-0.00622853916138411,0,
00:00:02.664,-0.00330466427840292,0,
00:00:02.668,0.00317817600443959,0,
00:00:02.672,0.00538067193701863,0,
00:00:02.676,0.00340269971638918,0,
00:00:02.68,-0.0103969797492027,0,
00:00:02.684,-0.00301481666974723,0,
00:00:02.688,0.00662423158064485,0,
00:00:02.692,0.00431126682087779,0,
00:00:02.696,-0.00435907021164894,0,
00:00:02.7,-0.00506213027983904,0,
00:00:02.704,0.0063875955529511,0,
00:00:02.708,0.00182301679160446,0,
00:00:02.712,-0.00311401230283082,0,
00:00:02.716,0.00423128204420209,0,
00:00:02.72,-0.00369406095705926,0,
00:00:02.724,-0.00143035571090877,0,
00:00:02.728,-0.0048601645976305,0,
00:00:02.732,-0.000389788212487474,0,
00:00:02.736,0.00544443121179938,0,
00:00:02.74,0.00825581513345242,0,
00:00:02.744,-0.00523598119616508,0,
00:00:02.748,-0.00501329218968749,0,
00:00:02.752,0.000965546816587448,0,
00:00:02.756,0.00395147828385234,0,
00:00:02.76,-0.00106882443651557,0,
00:00:02.764,-0.00389995519071817,0,
00:00:02.768,0.0010961078805849,0,
00:00:02.772,0.00391995953395963,0,
00:00:02.776,-0.00105146784335375,0,
00:00:02.78,-0.00385079975239933,0,
00:00:02.784,0.00112297653686255,0,
00:00:02.788,0.00390219432301819,0,
00:00:02.792,0.000974611262790859,0,
00:00:02.796,-0.00588065944612026,0,
00:00:02.8,-0.00263245985843241,0,
00:00:02.804,0.00568732805550098,0,
00:00:02.808,0.00138982117641717,0,
00:00:02.812,-0.00268597016111016,0,
00:00:02.816,0.000886516936589032,0,
00:00:02.82,0.000874118821229786,0,
00:00:02.824,0.00202470319345593,0,
00:00:02.828,-0.000566770788282156,0,
00:00:02.832,-0.00639861170202494,0,
00:00:02.836,-0.000215010179090314,0,
00:00:02.84,0.00440702820196748,0,
00:00:02.844,0.000339879712555557,0,
00:00:02.848,-0.00467047281563282,0,
00:00:02.852,0.00366248935461044,0,
00:00:02.856,0.00748673034831882,0,
00:00:02.86,-0.00341197964735329,0,
00:00:02.864,-0.00899422727525234,0,
00:00:02.868,0.00361494463868439,0,
00:00:02.872,0.00370850646868348,0,
00:00:02.876,-0.00149805913679302,0,
00:00:02.88,-0.00381026766262949,0,
00:00:02.884,-0.000544383947271854,0,
00:00:02.888,0.00631788326427341,0,
00:00:02.892,0.000781219103373587,0,
00:00:02.896,-0.00373281165957451,0,
00:00:02.9,8.14990198705345E-05,0,
00:00:02.904,0.00266973534598947,0,
00:00:02.908,0.000219215959077701,0,
00:00:02.912,-0.00598851218819618,0,
00:00:02.916,-0.00436507211998105,0,
00:00:02.92,0.00813547521829605,0,
00:00:02.924,0.00545921735465527,0,
00:00:02.928,0.00187511520925909,0,
00:00:02.932,-0.0117280948907137,0,
00:00:02.936,-0.00144352694042027,0,
00:00:02.94,0.00693733664229512,0,
00:00:02.944,-0.00293327425606549,0,
00:00:02.948,-0.00176446221303195,0,
00:00:02.952,0.00325472210533917,0,
00:00:02.956,0.0046323137357831,0,
00:00:02.96,-0.00165158300660551,0,
00:00:02.964,-0.0049842931330204,0,
00:00:02.968,0.000179544033017009,0,
00:00:02.972,0.00349396653473377,0,
00:00:02.976,-0.00100764690432698,0,
00:00:02.98,-0.00355081935413182,0,
00:00:02.984,-0.000631654111202806,0,
00:00:02.988,0.00814902037382126,0,
00:00:02.992,0.000679709017276764,0,
00:00:02.996,-0.00741575472056866,0,
00:00:03,-0.00375563674606383,0,
00:00:03.004,0.00334818637929857,0,
00:00:03.008,0.00580781884491444,0,
00:00:03.012,-0.000383543461794034,0,
00:00:03.016,-0.00421654665842652,0,
00:00:03.02,0.0023999703116715,0,
00:00:03.024,0.00123828544747084,0,
00:00:03.028,-0.005132423248142,0,
00:00:03.032,-0.00413347641006112,0,
00:00:03.036,0.00786602590233088,0,
00:00:03.04,0.00501637533307076,0,
00:00:03.044,-0.00469459313899279,0,
00:00:03.048,-0.00385335693135858,0,
00:00:03.052,0.00364244659431279,0,
00:00:03.056,0.00192131008952856,0,
00:00:03.06,-0.0030940577853471,0,
00:00:03.064,-0.00444330554455519,0,
00:00:03.068,0.00177217659074813,0,
00:00:03.072,0.00498826056718826,0,
00:00:03.076,-0.000266793766058981,0,
00:00:03.08,-0.00568630732595921,0,
00:00:03.084,0.00289212726056576,0,
00:00:03.088,0.00515267113223672,0,
00:00:03.092,-0.00126181601081043,0,
00:00:03.096,-0.00491156056523323,0,
00:00:03.1,6.5556938352529E-05,0,
00:00:03.104,0.00336296646855772,0,
00:00:03.108,0.00101531704422086,0,
00:00:03.112,-0.00549182156100869,0,
00:00:03.116,-0.00426938943564892,0,
00:00:03.12,0.00794828962534666,0,
00:00:03.124,0.00518335914239287,0,
00:00:03.128,-0.00456307362765074,0,
00:00:03.132,-0.00380923878401518,0,
00:00:03.136,0.00361041002906859,0,
00:00:03.14,0.0018553480040282,0,
00:00:03.144,-0.00107718864455819,0,
00:00:03.148,-0.0106002492830157,0,
00:00:03.152,0.00615609064698219,0,
00:00:03.156,0.00613698409870267,0,
00:00:03.16,0.00138367374893278,0,
00:00:03.164,-0.00848342012614012,0,
00:00:03.168,0.000671598070766777,0,
00:00:03.172,0.00482017965987325,0,
00:00:03.176,-0.000259058288065717,0,
00:00:03.18,-0.00361424428410828,0,
00:00:03.184,-0.00116742507088929,0,
00:00:03.188,0.00757945422083139,0,
00:00:03.192,-0.0017241935711354,0,
00:00:03.196,-0.00339861423708498,0,
00:00:03.2,-0.003929253667593,0,
00:00:03.204,0.00416682986542583,0,
00:00:03.208,0.00296108797192574,0,
00:00:03.212,-0.00631158333271742,0,
00:00:03.216,-7.41445765015669E-05,0,
00:00:03.22,0.00701355002820492,0,
00:00:03.224,0.00294738612137735,0,
00:00:03.228,-0.00403116596862674,0,
00:00:03.232,-0.00611264817416668,0,
00:00:03.236,-0.00163819058798254,0,
00:00:03.24,0.00851182732731104,0,
00:00:03.244,-0.000405412545660511,0,
00:00:03.248,-0.00660537602379918,0,
00:00:03.252,0.00239509623497725,0,
00:00:03.256,0.00733061693608761,0,
00:00:03.26,-0.00281330081634223,0,
00:00:03.264,-0.00614145770668983,0,
00:00:03.268,9.7526193712838E-05,0,
00:00:03.272,0.00419292179867625,0,
00:00:03.276,-0.000177287540282123,0,
00:00:03.28,-0.00097325851675123,0,
00:00:03.284,-0.00255078473128378,0,
00:00:03.288,0.00417979527264833,0,
00:00:03.292,0.00214279978536069,0,
00:00:03.296,-0.00517666386440396,0,
00:00:03.3,-0.00264098239131272,0,
00:00:03.304,0.00525074452161789,0,
00:00:03.308,0.0029840087518096,0,
00:00:03.312,-0.00494306208565831,0,
00:00:03.316,-0.00493774935603142,0,
00:00:03.32,0.00686032650992274,0,
00:00:03.324,0.00435588927939534,0,
00:00:03.328,-0.00484947673976421,0,
00:00:03.332,0.00051642139442265,0,
00:00:03.336,-0.002036077901721,0,
00:00:03.34,0.000889058923348784,0,
00:00:03.344,-0.00376508571207523,0,
00:00:03.348,-0.000632050505373627,0,
00:00:03.352,0.00452775973826647,0,
00:00:03.356,0.00529993651434779,0,
00:00:03.36,-0.00163311196956784,0,
00:00:03.364,-0.00740489736199379,0,
00:00:03.368,0.0017692520050332,0,
00:00:03.372,0.00698352977633476,0,
00:00:03.376,-0.00491129420697689,0,
00:00:03.38,-0.0039567812345922,0,
00:00:03.384,-5.56218801648356E-05,0,
00:00:03.388,0.00863855890929699,0,
00:00:03.392,0.000817942607682198,0,
00:00:03.396,-0.00753005361184478,0,
00:00:03.4,-0.00393718155100942,0,
00:00:03.404,0.00530630256980658,0,
00:00:03.408,0.00381820579059422,0,
00:00:03.412,-0.00404092436656356,0,
00:00:03.416,-0.00233629229478538,0,
00:00:03.42,0.00286986702121794,0,
00:00:03.424,0.00651700654998422,0,
00:00:03.428,-0.00568685354664922,0,
00:00:03.432,-0.00656824931502342,0,
00:00:03.436,0.00796819757670164,0,
00:00:03.44,0.00235373922623694,0,
00:00:03.444,-0.00594161869958043,0,
00:00:03.448,-0.00317897647619247,0,
00:00:03.452,0.00522379064932466,0,
00:00:03.456,0.00329335872083902,0,
00:00:03.46,-0.00457996595650911,0,
00:00:03.464,-0.00263820821419358,0,
00:00:03.468,0.000768647179938853,0,
00:00:03.472,0.00864362716674805,0,
00:00:03.476,0.000298272643703967,0,
00:00:03.48,-0.010208347812295,0,
00:00:03.484,-0.000267719442490488,0,
00:00:03.488,0.00489369640126824,0,
00:00:03.492,0.00249060802161694,0,
00:00:03.496,-0.00485240295529366,0,
00:00:03.5,-0.00235940748825669,0,
00:00:03.504,0.00540843466296792,0,
00:00:03.508,0.00299633457325399,0,
00:00:03.512,-0.00503062875941396,0,
00:00:03.516,-0.00297773652710021,0,
00:00:03.52,0.00479802489280701,0,
00:00:03.524,0.00475453911349177,0,
00:00:03.528,-0.00699256407096982,0,
00:00:03.532,-0.00440363865345716,0,
00:00:03.536,0.00487096840515733,0,
00:00:03.54,0.00368776288814843,0,
00:00:03.544,-0.00394208263605833,0,
00:00:03.548,-0.00217277649790049,0,
00:00:03.552,0.00297802779823542,0,
00:00:03.556,0.00653191609308124,0,
00:00:03.56,-0.00366481603123248,0,
00:00:03.564,-0.00861802045255899,0,
00:00:03.568,4.27196682721842E-05,0,
00:00:03.572,0.0101566482335329,0,
00:00:03.576,0.00201096874661744,0,
00:00:03.58,-0.00926729943603277,0,
00:00:03.584,-0.0002150609070668,0,
00:00:03.588,0.00440919864922762,0,
00:00:03.592,-0.00016381534805987,0,
00:00:03.596,-0.00325274583883584,0,
00:00:03.6,0.00126861757598817,0,
00:00:03.604,0.00372914876788855,0,
00:00:03.608,0.000702961056958884,0,
00:00:03.612,-0.00608319044113159,0,
00:00:03.616,-0.00270157819613814,0,
00:00:03.62,0.00572900241240859,0,
00:00:03.624,0.00355557049624622,0,
00:00:03.628,-0.00458116689696908,0,
00:00:03.632,-0.0027911716606468,0,
00:00:03.636,0.00267194723710418,0,
00:00:03.64,0.00656125554814935,0,
00:00:03.644,-0.00551646435633302,0,
00:00:03.648,-0.00431990344077349,0,
00:00:03.652,0.00194166181609035,0,
00:00:03.656,0.00467755412682891,0,
00:00:03.66,-0.000799860281404108,0,
00:00:03.664,-0.00401384057477117,0,
00:00:03.668,0.000807026633992791,0,
00:00:03.672,0.00572817726060748,0,
00:00:03.676,-0.00316696334630251,0,
00:00:03.68,-0.0075741526670754,0,
00:00:03.684,0.002996816765517,0,
00:00:03.688,0.00855326279997826,0,
00:00:03.692,-0.00181144697126001,0,
00:00:03.696,-0.00989429652690887,0,
00:00:03.7,0.00597290089353919,0,
00:00:03.704,0.00715658767148852,0,
00:00:03.708,-0.00384444673545659,0,
00:00:03.712,-0.00677640223875642,0,
00:00:03.716,-0.00198701675981283,0,
00:00:03.72,0.00653583277016878,0,
00:00:03.724,0.00394861726090312,0,
00:00:03.728,-0.00461167562752962,0,
00:00:03.732,-0.00304037146270275,0,
00:00:03.736,0.0044947499409318,0,
00:00:03.74,0.00237530004233122,0,
00:00:03.744,-0.00518445344641805,0,
00:00:03.748,-0.000698472082149237,0,
00:00:03.752,0.00315722427330911,0,
00:00:03.756,0.00130859296768904,0,
00:00:03.76,-0.00507401535287499,0,
00:00:03.764,-0.00193830206990242,0,
00:00:03.768,0.00183143117465079,0,
00:00:03.772,0.00940634217113256,0,
00:00:03.776,0.000515886640641838,0,
00:00:03.78,-0.0104279462248087,0,
00:00:03.784,-0.00066151178907603,0,
00:00:03.788,0.00663712294772267,0,
00:00:03.792,-0.00171648268587887,0,
00:00:03.796,-0.00450572744011879,0,
00:00:03.8,-0.000787857279647142,0,
00:00:03.804,0.006543496157974,0,
00:00:03.808,0.00325217563658953,0,
00:00:03.812,-0.00541311129927635,0,
00:00:03.816,-0.00355124264024198,0,
00:00:03.82,0.00437842449173331,0,
00:00:03.824,0.00254256697371602,0,
00:00:03.828,-0.00284599047154188,0,
00:00:03.832,-0.00661909161135554,0,
00:00:03.836,0.00555072212591767,0,
00:00:03.84,0.00439315708354115,0,
00:00:03.844,-0.00395282031968236,0,
00:00:03.848,-0.00267035816796124,0,
00:00:03.852,0.00244097923859954,0,
00:00:03.856,0.00417119823396206,0,
00:00:03.86,-0.00167194358073175,0,
00:00:03.864,-0.00469414051622152,0,
00:00:03.868,0.000557750638108701,0,
00:00:03.872,0.00377907301299274,0,
00:00:03.876,0.00118527631275356,0,
00:00:03.88,-0.00555357476696372,0,
00:00:03.884,-0.00237236684188247,0,
00:00:03.888,0.0078745074570179,0,
00:00:03.892,-0.00268394453451037,0,
00:00:03.896,-0.00244385004043579,0,
00:00:03.9,0.0022594453766942,0,
00:00:03.904,0.00391655880957842,0,
00:00:03.908,-0.00184905750211328,0,
00:00:03.912,-0.00268403370864689,0,
00:00:03.916,-0.00347700691781938,0,
00:00:03.92,0.00208595977164805,0,
00:00:03.924,0.00674438150599599,0,
00:00:03.928,-0.00484852772206068,0,
00:00:03.932,-0.00573295308277011,0,
00:00:03.936,0.00634055072441697,0,
00:00:03.94,0.00433457689359784,0,
00:00:03.944,-0.00457046506926417,0,
00:00:03.948,-0.00332633988000453,0,
00:00:03.952,0.00416077813133597,0,
00:00:03.956,0.0021993073169142,0,
00:00:03.96,-0.00308325095102191,0,
00:00:03.964,-0.00459701521322131,0,
00:00:03.968,-0.000489103083964437,0,
00:00:03.972,0.0089143356308341,0,
00:00:03.976,-0.000636220443993807,0,
00:00:03.98,-0.00711998296901584,0,
00:00:03.984,0.00192970281932503,0,
00:00:03.988,0.00501572666689754,0,
00:00:03.992,0.00123290857300162,0,
00:00:03.996,-0.00634074909612536,0,
00:00:04,-0.00328559195622802,0,
00:00:04.004,0.0052523142658174,0,
00:00:04.008,0.00338344438932836,0,
00:00:04.012,-0.00655461149290204,0,
00:00:04.016,-0.000585283152759075,0,
00:00:04.02,0.0107532329857349,0,
00:00:04.024,-0.00115130888298154,0,
00:00:04.028,-0.00930364057421684,0,
00:00:04.032,-0.00429467670619488,0,
00:00:04.036,0.00394551502540708,0,
00:00:04.04,0.00678813271224499,0,
00:00:04.044,0.000351206108462065,0,
00:00:04.048,-0.00397866172716022,0,
00:00:04.052,0.000146600985317491,0,
00:00:04.056,0.00493329111486673,0,
00:00:04.06,-0.00577866984531283,0,
00:00:04.064,-0.00367820519022644,0,
00:00:04.068,0.00279779522679746,0,
00:00:04.072,0.00525859370827675,0,
00:00:04.076,-0.000649857916869223,0,
00:00:04.08,-0.00626713316887617,0,
00:00:04.084,0.00248435325920582,0,
00:00:04.088,0.00712760398164392,0,
00:00:04.092,-0.00309670064598322,0,
00:00:04.096,-0.00632276805117726,0,
00:00:04.1,-0.00199828576296568,0,
00:00:04.104,0.00626613479107618,0,
00:00:04.108,0.00367340282537043,0,
00:00:04.112,-0.00474725011736155,0,
00:00:04.116,-0.00302073452621698,0,
00:00:04.12,0.00460484903305769,0,
00:00:04.124,0.00249482085928321,0,
00:00:04.128,-0.00510918954387307,0,
00:00:04.132,-0.00483243307098746,0,
00:00:04.136,0.00916009861975908,0,
00:00:04.14,0.0046556331217289,0,
00:00:04.144,-0.00836689118295908,0,
00:00:04.148,-0.007530911359936,0,
00:00:04.152,0.00657184515148401,0,
00:00:04.156,0.00564195308834314,0,
00:00:04.16,-0.00118615082465112,0,
00:00:04.164,-0.0066872239112854,0,
00:00:04.168,0.00449034431949258,0,
00:00:04.172,0.00531294476240873,0,
00:00:04.176,-0.00661496119573712,0,
00:00:04.18,-0.00441089645028114,0,
00:00:04.184,0.000486511882627383,0,
00:00:04.188,0.00947241205722094,0,
00:00:04.192,-0.000679247372318059,0,
00:00:04.196,-0.00749712530523539,0,
00:00:04.2,0.00154460466001183,0,
00:00:04.204,0.00689013535156846,0,
00:00:04.208,-0.000735059613361955,0,
00:00:04.212,-0.00992427859455347,0,
00:00:04.216,-0.0013326172484085,0,
00:00:04.22,0.00991467013955116,0,
00:00:04.224,0.000564737536478788,0,
00:00:04.228,-0.00646085059270263,0,
00:00:04.232,0.00196173531003296,0,
00:00:04.236,0.00467531429603696,0,
00:00:04.24,0.000834201229736209,0,
00:00:04.244,-0.00659222435206175,0,
00:00:04.248,-0.0033369492739439,0,
00:00:04.252,0.0032673585228622,0,
00:00:04.256,0.00757091818377376,0,
00:00:04.26,-0.00470711709931493,0,
00:00:04.264,-0.00398388085886836,0,
00:00:04.268,0.00185092107858509,0,
00:00:04.272,0.00644889194518328,0,
00:00:04.276,-0.000999553012661636,0,
00:00:04.28,-0.00987634249031544,0,
00:00:04.284,-0.00113286753185093,0,
00:00:04.288,0.010086702182889,0,
00:00:04.292,0.000621565675828606,0,
00:00:04.296,-0.00443552946671844,0,
00:00:04.3,-0.00218909094110131,0,
00:00:04.304,0.00907062646001577,0,
00:00:04.308,-0.00377390207722783,0,
00:00:04.312,-0.00895911175757647,0,
00:00:04.316,0.00221174163743854,0,
00:00:04.32,0.00650510657578707,0,
00:00:04.324,0.00273845600895584,0,
00:00:04.328,-0.00761283561587334,0,
00:00:04.332,-0.00130867201369256,0,
00:00:04.336,0.00639927620068192,0,
00:00:04.34,0.00504978932440281,0,
00:00:04.344,-0.00769096566364169,0,
00:00:04.348,-0.0074207098223269,0,
00:00:04.352,0.00622462201863527,0,
00:00:04.356,0.00728048384189606,0,
00:00:04.36,-0.00549618247896433,0,
00:00:04.364,-0.00428942637518048,0,
00:00:04.368,0.00206167018041015,0,
00:00:04.372,0.00478840712457895,0,
00:00:04.376,-0.000772643019445241,0,
00:00:04.38,-0.00614815065637231,0,
00:00:04.384,0.00268326117657125,0,
00:00:04.388,0.00728174764662981,0,
00:00:04.392,-0.00303803337737918,0,
00:00:04.396,-0.00634652841836214,0,
00:00:04.4,-0.00206059333868325,0,
00:00:04.404,0.00828365236520767,0,
00:00:04.408,0.00166717579122633,0,
00:00:04.412,-0.00846669357270002,0,
00:00:04.416,-0.00120623246766627,0,
00:00:04.42,0.00710932351648808,0,
00:00:04.424,0.00371276983059943,0,
00:00:04.428,-0.00324175599962473,0,
00:00:04.432,-0.00568128656595945,0,
00:00:04.436,0.000453519547590986,0,
00:00:04.44,0.00629154080525041,0,
00:00:04.444,-0.0064965751953423,0,
00:00:04.448,0.00111710536293685,0,
00:00:04.452,0.00458614667877555,0,
00:00:04.456,0.00142511632293463,0,
00:00:04.46,-0.00587373739108443,0,
00:00:04.464,-0.00291208946146071,0,
00:00:04.468,0.00121265684720129,0,
00:00:04.472,0.0092912781983614,0,
00:00:04.476,-0.00131256377790123,0,
00:00:04.48,-0.00808999594300985,0,
00:00:04.484,0.00125925859902054,0,
00:00:04.488,0.00485011376440525,0,
00:00:04.492,0.0014585672179237,0,
00:00:04.496,-0.00804611854255199,0,
00:00:04.5,0.00106734596192837,0,
00:00:04.504,0.00712924776598811,0,
00:00:04.508,-0.00215309741906822,0,
00:00:04.512,-0.00526738865301013,0,
00:00:04.516,-0.00138648820575327,0,
00:00:04.52,0.00631365180015564,0,
00:00:04.524,0.00334545294754207,0,
00:00:04.528,-0.0051668151281774,0,
00:00:04.532,-0.00124375871382654,0,
00:00:04.536,0.000451567961135879,0,
00:00:04.54,0.00288403197191656,0,
00:00:04.544,-0.00559575157240033,0,
00:00:04.548,0.00242504477500916,0,
00:00:04.552,0.00501606520265341,0,
00:00:04.556,0.00105035863816738,0,
00:00:04.56,-0.00445266347378492,0,
00:00:04.564,-0.00744991097599268,0,
00:00:04.568,0.00348071497865021,0,
00:00:04.572,0.00892564561218023,0,
00:00:04.576,-0.00167338189203292,0,
00:00:04.58,-0.0057835141196847,0,
00:00:04.584,-0.000163691234774888,0,
00:00:04.588,0.00368047365918756,0,
00:00:04.592,0.00145986722782254,0,
00:00:04.596,-0.00730632105842233,0,
00:00:04.6,0.00185255077667534,0,
00:00:04.604,0.00545436516404152,0,
00:00:04.608,0.00185169861651957,0,
00:00:04.612,-0.00591693073511124,0,
00:00:04.616,-0.00320375524461269,0,
00:00:04.62,0.0050657712854445,0,
00:00:04.624,0.00517651485279202,0,
00:00:04.628,-0.00875723920762539,0,
00:00:04.632,-0.00232898117974401,0,
00:00:04.636,0.0064384127035737,0,
00:00:04.64,0.00371689582243562,0,
00:00:04.644,-0.00283785490319133,0,
00:00:04.648,-0.00731441983953118,0,
00:00:04.652,0.00268323253840208,0,
00:00:04.656,0.0100306803360581,0,
00:00:04.66,-0.00635078782215714,0,
00:00:04.664,-0.0076628508977592,0,
00:00:04.668,0.0055711017921567,0,
00:00:04.672,0.00470472872257233,0,
00:00:04.676,-0.00163151777815074,0,
00:00:04.68,-0.00456321286037564,0,
00:00:04.684,0.000756765075493604,0,
00:00:04.688,0.00390696804970503,0,
00:00:04.692,0.00117783329915255,0,
00:00:04.696,-0.0077416799031198,0,
00:00:04.7,0.00153622159268707,0,
00:00:04.704,0.00535773625597358,0,
00:00:04.708,-0.000142908756970428,0,
00:00:04.712,-0.00378754525445402,0,
00:00:04.716,0.00272197532467544,0,
00:00:04.72,-0.000720480165909976,0,
00:00:04.724,0.000945067557040602,0,
00:00:04.728,-0.00656330911442637,0,
00:00:04.732,0.000499213871080428,0,
00:00:04.736,0.00771778915077448,0,
00:00:04.74,0.00547823263332248,0,
00:00:04.744,-0.00796540360897779,0,
00:00:04.748,-0.00590259348973632,0,
00:00:04.752,0.00169826822821051,0,
00:00:04.756,0.00532042840495706,0,
00:00:04.76,4.93977750011254E-05,0,
00:00:04.764,-0.00551607273519039,0,
00:00:04.768,0.00500389095395803,0,
00:00:04.772,0.00521696312353015,0,
00:00:04.776,-0.0070037548430264,0,
00:00:04.78,-0.00478292070329189,0,
00:00:04.784,0.00237359059974551,0,
00:00:04.788,0.00750417448580265,0,
00:00:04.792,-0.00219912058673799,0,
00:00:04.796,-0.00545983901247382,0,
00:00:04.8,-0.00157458777539432,0,
00:00:04.804,0.00619742134585977,0,
00:00:04.808,0.00330928550101817,0,
00:00:04.812,-0.00307288346812129,0,
00:00:04.816,-0.00733302114531398,0,
00:00:04.82,0.00486658606678247,0,
00:00:04.824,0.00195240834727883,0,
00:00:04.828,8.1984733697027E-05,0,
00:00:04.832,-0.00280611170455813,0,
00:00:04.836,0.00329090375453234,0,
00:00:04.84,0.0013374809641391,0,
00:00:04.844,-0.0055278604850173,0,
00:00:04.848,-0.00253902957774699,0,
00:00:04.852,0.00351756904274225,0,
00:00:04.856,0.00738038029521704,0,
00:00:04.86,-0.002998300595209,0,
00:00:04.864,-0.008345034904778,0,
00:00:04.868,0.00204292754642665,0,
00:00:04.872,0.00793352629989386,0,
00:00:04.876,-0.00402521109208465,0,
00:00:04.88,-0.00355348968878388,0,
00:00:04.884,-0.00015421946591232,0,
00:00:04.888,0.00826202612370253,0,
00:00:04.892,-0.0016486580716446,0,
00:00:04.896,-0.00579204643145204,0,
00:00:04.9,-0.000267296243691817,0,
00:00:04.904,0.00566647481173277,0,
00:00:04.908,-0.00259425141848624,0,
00:00:04.912,-0.00689380709081888,0,
00:00:04.916,0.00342880957759917,0,
00:00:04.92,0.00656556105241179,0,
00:00:04.924,5.5722271099512E-06,0,
00:00:04.928,-0.00433876365423203,0,
00:00:04.932,-6.05550121690612E-05,0,
00:00:04.936,0.00285527505911887,0,
00:00:04.94,0.000488924328237772,0,
00:00:04.944,-0.00580912409350276,0,
00:00:04.948,-0.00225469982251525,0,
00:00:04.952,0.00608721608296037,0,
00:00:04.956,0.0037089039105922,0,
00:00:04.96,-0.00461326539516449,0,
00:00:04.964,-0.00291789462789893,0,
00:00:04.968,0.00254429201595485,0,
00:00:04.972,0.00648785755038261,0,
00:00:04.976,-0.00345084560103714,0,
00:00:04.98,-0.00626405235379934,0,
00:00:04.984,0.000341570121236146,0,
00:00:04.988,0.00660652760416269,0,
00:00:04.992,-0.00192205642815679,0,
00:00:04.996,-0.00670970650389791,0,
00:00:05,0.0032232403755188,0,
00:00:05.004,0.00828334596008062,0,
00:00:05.008,-0.00226891948841512,0,
00:00:05.012,-0.00611936068162322,0,
00:00:05.016,-0.00229922123253345,0,
00:00:05.02,0.00577056733891368,0,
00:00:05.024,0.00326269492506981,0,
00:00:05.028,-0.0049380618147552,0,
00:00:05.032,-0.00300328084267676,0,
00:00:05.036,0.00473593780770898,0,
00:00:05.04,0.00263598002493382,0,
00:00:05.044,-0.00502269435673952,0,
00:00:05.048,-0.0027391912881285,0,
00:00:05.052,0.00507864588871598,0,
00:00:05.056,0.00286789215169847,0,
00:00:05.06,-0.00496106315404177,0,
00:00:05.064,-0.0028067056555301,0,
00:00:05.068,0.00288738775998354,0,
00:00:05.072,0.00682448083534837,0,
00:00:05.076,-0.00326041947118938,0,
00:00:05.08,-0.00624016253277659,0,
00:00:05.084,0.00025799052673392,0,
00:00:05.088,0.0044202134013176,0,
00:00:05.092,-2.55983377428493E-05,0,
00:00:05.096,-0.00509417103603482,0,
00:00:05.1,0.00341575173661113,0,
00:00:05.104,0.00747397495433688,0,
00:00:05.108,-0.00326706212945282,0,
00:00:05.112,-0.00673537002876401,0,
00:00:05.116,-0.0023813215084374,0,
00:00:05.12,0.00813832320272923,0,
00:00:05.124,0.00168611109256744,0,
00:00:05.128,-0.00628420989960432,0,
00:00:05.132,-0.00306933559477329,0,
00:00:05.136,0.00345879746600986,0,
00:00:05.14,0.00552321644499898,0,
00:00:05.144,-0.000782256829552352,0,
00:00:05.148,-0.00658869836479425,0,
00:00:05.152,0.00426530139520764,0,
00:00:05.156,0.00292638293467462,0,
00:00:05.16,-0.00483785662800074,0,
00:00:05.164,-0.00279154488816857,0,
00:00:05.168,0.00284439022652805,0,
00:00:05.172,0.00679718144237995,0,
00:00:05.176,-0.00531728845089674,0,
00:00:05.18,-0.0042114625684917,0,
00:00:05.184,0.0019588430877775,0,
00:00:05.188,0.00671357940882444,0,
00:00:05.192,-0.00282963924109936,0,
00:00:05.196,-0.00777082890272141,0,
00:00:05.2,0.00259201391600072,0,
00:00:05.204,0.00614469824358821,0,
00:00:05.208,0.00210523698478937,0,
00:00:05.212,-0.00602927803993225,0,
00:00:05.216,-0.00345807825215161,0,
00:00:05.22,0.00693499110639095,0,
00:00:05.224,0.00104941369500011,0,
00:00:05.228,-0.00630761403590441,0,
00:00:05.232,-0.00482014380395412,0,
00:00:05.236,0.00995473470538855,0,
00:00:05.24,0.00136180350091308,0,
00:00:05.244,-0.00395539961755276,0,
00:00:05.248,-0.00218666787259281,0,
00:00:05.252,0.00463630212470889,0,
00:00:05.256,0.00402282597497106,0,
00:00:05.26,-0.00564038567245007,0,
00:00:05.264,-0.00882001128047705,0,
00:00:05.268,0.00316174328327179,0,
00:00:05.272,0.00947495829313993,0,
00:00:05.276,-0.00295209581963718,0,
00:00:05.28,-0.00325636263005435,0,
00:00:05.284,-0.000463282194687054,0,
00:00:05.288,0.0097941504791379,0,
00:00:05.292,-0.00407719891518354,0,
00:00:05.296,-0.00764211174100637,0,
00:00:05.3,-0.00249617570079863,0,
00:00:05.304,0.00863367412239313,0,
00:00:05.308,0.000233750659390353,0,
00:00:05.312,-0.0039146738126874,0,
00:00:05.316,-0.00136528676375747,0,
00:00:05.32,0.00761091196909547,0,
00:00:05.324,-0.00159529782831669,0,
00:00:05.328,-0.00538355810567737,0,
00:00:05.332,-0.00195459253154695,0,
00:00:05.336,0.00573692796751857,0,
00:00:05.34,0.00304607418365777,0,
00:00:05.344,-0.00514707015827298,0,
00:00:05.348,-0.00310414447449148,0,
00:00:05.352,0.00474921381101012,0,
00:00:05.356,0.00271393265575171,0,
00:00:05.36,-0.00493886601179838,0,
00:00:05.364,-0.00268737971782684,0,
00:00:05.368,0.0030138473957777,0,
00:00:05.372,0.00690138898789883,0,
00:00:05.376,-0.00532113062217832,0,
00:00:05.38,-0.0042923865839839,0,
00:00:05.384,0.0039351568557322,0,
00:00:05.388,0.00259104697033763,0,
00:00:05.392,-0.000446513207862154,0,
00:00:05.396,-0.00826987996697426,0,
00:00:05.4,0.00199779472313821,0,
00:00:05.404,0.00825416017323732,0,
00:00:05.408,-0.00148673774674535,0,
00:00:05.412,-0.00729256263002753,0,
00:00:05.416,0.00229863752610981,0,
00:00:05.42,0.00758653972297907,0,
00:00:05.424,-0.000430926389526576,0,
00:00:05.428,-0.00794509239494801,0,
00:00:05.432,-0.00569612812250853,0,
00:00:05.436,0.00993218366056681,0,
00:00:05.44,0.00391846895217896,0,
00:00:05.444,-0.00537392543628812,0,
00:00:05.448,-0.00555193424224854,0,
00:00:05.452,0.00651049520820379,0,
00:00:05.456,0.0063860984519124,0,
00:00:05.46,-0.00669765844941139,0,
00:00:05.464,-0.00720144156366587,0,
00:00:05.468,0.00587524846196175,0,
00:00:05.472,0.00468643940985203,0,
00:00:05.476,-0.00389823317527771,0,
00:00:05.48,-0.00276809860952199,0,
00:00:05.484,0.00440275203436613,0,
00:00:05.488,0.00214645289815962,0,
00:00:05.492,-0.00328891188837588,0,
00:00:05.496,-0.00480512250214815,0,
00:00:05.5,0.00146595493424684,0,
00:00:05.504,0.00692105852067471,0,
00:00:05.508,-0.00222844677045941,0,
00:00:05.512,-0.00722896307706833,0,
00:00:05.516,0.000746164645534009,0,
00:00:05.52,0.0101118665188551,0,
00:00:05.524,0.00359713402576745,0,
00:00:05.528,-0.0117955757305026,0,
00:00:05.532,-0.00429145572707057,0,
00:00:05.536,0.00611421093344688,0,
00:00:05.54,0.00449791783466935,0,
00:00:05.544,-0.00385211175307631,0,
00:00:05.548,-0.000446841848315671,0,
00:00:05.552,0.000590563344303519,0,
00:00:05.556,0.00465369876474142,0,
00:00:05.56,-0.0038521362002939,0,
00:00:05.564,-0.00763777224346995,0,
00:00:05.568,0.00331622967496514,0,
00:00:05.572,0.00685432041063905,0,
00:00:05.576,0.00246372492983937,0,
00:00:05.58,-0.00605279020965099,0,
00:00:05.584,-0.00163084722589701,0,
00:00:05.588,0.00260511855594814,0,
00:00:05.592,-0.000871947326231748,0,
00:00:05.596,-0.00498738745227456,0,
00:00:05.6,0.0040218005888164,0,
00:00:05.604,0.00601974548771977,0,
00:00:05.608,0.00113600899931043,0,
00:00:05.612,-0.00703230639919639,0,
00:00:05.616,-0.00401361007243395,0,
00:00:05.62,0.00482671754434705,0,
00:00:05.624,0.0033241652417928,0,
00:00:05.628,-0.0042949658818543,0,
00:00:05.632,-0.00231193541549146,0,
00:00:05.636,0.00514002470299602,0,
00:00:05.64,0.00476126978173852,0,
00:00:05.644,-0.00926037039607763,0,
00:00:05.648,-0.00265413755550981,0,
00:00:05.652,0.00636434322223067,0,
00:00:05.656,0.00382504914887249,0,
00:00:05.66,-0.00474383588880301,0,
00:00:05.664,-0.00312983593903482,0,
00:00:05.668,0.00240501994267106,0,
00:00:05.672,0.00439968565478921,0,
00:00:05.676,-0.0013930342392996,0,
00:00:05.68,-0.00451128045096993,0,
00:00:05.684,0.000602142012212425,0,
00:00:05.688,0.00579713750630617,0,
00:00:05.692,-0.00503524020314217,0,
00:00:05.696,-0.00331981736235321,0,
00:00:05.7,0.00277859810739756,0,
00:00:05.704,0.005027134437114,0,
00:00:05.708,0.00116968085058033,0,
00:00:05.712,-0.0063274740241468,0,
00:00:05.716,-0.00324480468407273,0,
00:00:05.72,0.00526043865829706,0,
00:00:05.724,0.0033436780795455,0,
00:00:05.728,-0.00662086671218276,0,
00:00:05.732,-0.000646773027256131,0,
00:00:05.736,0.00864134076982737,0,
00:00:05.74,0.000816688407212496,0,
00:00:05.744,-0.00764947943389416,0,
00:00:05.748,-0.00409948220476508,0,
00:00:05.752,0.00519245536997914,0,
00:00:05.756,0.00379064679145813,0,
00:00:05.76,-0.00399895897135139,0,
00:00:05.764,-0.00226727896369994,0,
00:00:05.768,0.00500315055251122,0,
00:00:05.772,0.00249304994940758,0,
00:00:05.776,-0.00327962404116988,0,
00:00:05.78,-0.00917218811810017,0,
00:00:05.784,0.00722596468403935,0,
00:00:05.788,0.0101184202358127,0,
00:00:05.792,-0.00555432168766856,0,
00:00:05.796,-0.0127728227525949,0,
00:00:05.8,0.00348630012013018,0,
00:00:05.804,0.0104573396965861,0,
00:00:05.808,-0.000490166596136987,0,
00:00:05.812,-0.0054755792953074,0,
00:00:05.816,-0.00259020458906889,0,
00:00:05.82,0.007170086260885,0,
00:00:05.824,-0.00136823626235127,0,
00:00:05.828,-0.00485942279919982,0,
00:00:05.832,-0.00148277718108147,0,
00:00:05.836,0.00804953835904598,0,
00:00:05.84,-0.00100868532899767,0,
00:00:05.844,-0.00495732249692082,0,
00:00:05.848,-0.00180323875974864,0,
00:00:05.852,0.00358737632632256,0,
00:00:05.856,0.00692356005311012,0,
00:00:05.86,-0.00148625462315977,0,
00:00:05.864,-0.0106760133057833,0,
00:00:05.868,0.000344012980349362,0,
00:00:05.872,0.00583831919357181,0,
00:00:05.876,0.0010921765351668,0,
00:00:05.88,-0.00268916971981525,0,
00:00:05.884,0.00115435791667551,0,
00:00:05.888,0.00325166434049606,0,
00:00:05.892,-0.0018648796249181,0,
00:00:05.896,-0.00439999159425497,0,
00:00:05.9,-0.00111020694021136,0,
00:00:05.904,0.00809392239898443,0,
00:00:05.908,-0.00117908779066056,0,
00:00:05.912,-0.00515710469335318,0,
00:00:05.916,-0.00191295903641731,0,
00:00:05.92,0.00774296745657921,0,
00:00:05.924,-0.00317796505987644,0,
00:00:05.928,-0.0029062801040709,0,
00:00:05.932,0.00621022889390588,0,
00:00:05.936,-0.0020386588294059,0,
00:00:05.94,-0.000863163557369262,0,
00:00:05.944,-0.00522617436945438,0,
00:00:05.948,-0.00114950293209404,0,
00:00:05.952,0.00686393585056067,0,
00:00:05.956,0.00389856426045299,0,
00:00:05.96,-0.00279155047610402,0,
00:00:05.964,-0.00530075281858444,0,
00:00:05.968,0.00265728728845716,0,
00:00:05.972,0.00420531863346696,0,
00:00:05.976,-0.00628726836293936,0,
00:00:05.98,-0.00539225060492754,0,
00:00:05.984,0.0055506182834506,0,
00:00:05.988,0.00752494018524885,0,
00:00:05.992,-0.000275981117738411,0,
00:00:05.996,-0.00729578454047441,0,
00:00:06,0.0010994547046721,0,
00:00:06.004,0.00202788133174181,0,
00:00:06.008,0.00268410961143672,0,
00:00:06.012,-0.00264317495748401,0,
00:00:06.016,-0.00476434268057346,0,
00:00:06.02,0.00524514820426703,0,
00:00:06.024,-0.00366033753380179,0,
00:00:06.028,0.000219786059460603,0,
00:00:06.032,-0.000531527679413557,0,
00:00:06.036,0.00533064315095544,0,
00:00:06.04,0.00217328849248588,0,
00:00:06.044,-0.00788675993680954,0,
00:00:06.048,-0.00138657074421644,0,
00:00:06.052,0.00645666243508458,0,
00:00:06.056,0.00309512508101761,0,
00:00:06.06,-0.00352234486490488,0,
00:00:06.064,-0.00560539541766047,0,
00:00:06.068,0.00280421297065914,0,
00:00:06.072,0.00460136123001575,0,
00:00:06.076,-0.00588875543326139,0,
00:00:06.08,-0.00515028787776828,0,
00:00:06.084,0.0076785902492702,0,
00:00:06.088,0.00547054503113031,0,
00:00:06.092,-0.00203927722759545,0,
00:00:06.096,-0.00756658753380179,0,
00:00:06.1,0.00398048339411616,0,
00:00:06.104,0.00316741759888828,0,
00:00:06.108,-0.00234338222071528,0,
00:00:06.112,-0.00444723479449749,0,
00:00:06.116,0.00131203653290868,0,
00:00:06.12,0.0044762184843421,0,
00:00:06.124,0.00150567782111466,0,
00:00:06.128,-0.00769936852157116,0,
00:00:06.132,0.00139135913923383,0,
00:00:06.136,0.00516463117673993,0,
00:00:06.14,0.00179405696690083,0,
00:00:06.144,-0.00581047404557467,0,
00:00:06.148,-0.000969715416431427,0,
00:00:06.152,0.00113582785706967,0,
00:00:06.156,0.00348160183057189,0,
00:00:06.16,-0.00325699243694544,0,
00:00:06.164,-0.00168866198509932,0,
00:00:06.168,0.00511421356350183,0,
00:00:06.172,0.00435188272967935,0,
00:00:06.176,-0.00762464478611946,0,
00:00:06.18,-0.0069549111649394,0,
00:00:06.184,0.00667976168915629,0,
00:00:06.188,0.00749868014827371,0,
00:00:06.192,-0.0034559927880764,0,
00:00:06.196,-0.0085205202922225,0,
00:00:06.2,0.0022025981452316,0,
00:00:06.204,0.00821010675281286,0,
00:00:06.208,-0.00382978189736605,0,
00:00:06.212,-0.00351453432813287,0,
00:00:06.216,-0.00023898042854853,0,
00:00:06.22,0.00605736579746008,0,
00:00:06.224,0.00229930481873453,0,
00:00:06.228,-0.00617067702114582,0,
00:00:06.232,-0.00172491662669927,0,
00:00:06.236,0.00260584452189505,0,
00:00:06.24,0.00130798714235425,0,
00:00:06.244,-0.00680877827107906,0,
00:00:06.248,0.00251619587652385,0,
00:00:06.252,0.00384429632686079,0,
00:00:06.256,0.00604376615956426,0,
00:00:06.26,-0.00636545196175575,0,
00:00:06.264,-0.00696322647854686,0,
00:00:06.268,0.00583458552137017,0,
00:00:06.272,0.00654519582167268,0,
00:00:06.276,-0.00610057031735778,0,
00:00:06.28,-0.00661441078409553,0,
00:00:06.284,0.0061914985999465,0,
00:00:06.288,0.00469929631799459,0,
00:00:06.292,-0.00199789134785533,0,
00:00:06.296,-0.00495632132515311,0,
00:00:06.3,0.000540360808372498,0,
00:00:06.304,0.00597753748297691,0,
00:00:06.308,-0.0027447110041976,0,
00:00:06.312,-0.00517724454402924,0,
00:00:06.316,-0.000943962659221143,0,
00:00:06.32,0.00881862919777632,0,
00:00:06.324,0.00158269493840635,0,
00:00:06.328,-0.00890533253550529,0,
00:00:06.332,-0.00167759309988469,0,
00:00:06.336,0.00889090169221163,0,
00:00:06.34,0.00167086685542017,0,
00:00:06.344,-0.0068651563487947,0,
00:00:06.348,-0.00581086706370115,0,
00:00:06.352,0.00918090902268887,0,
00:00:06.356,0.0031591069418937,0,
00:00:06.36,-0.00577769568189979,0,
00:00:06.364,-0.00347737106494606,0,
00:00:06.368,0.00478111114352942,0,
00:00:06.372,0.00295836315490305,0,
00:00:06.376,-0.00470590963959694,0,
00:00:06.38,-0.00258627766743302,0,
00:00:06.384,0.00297894096001983,0,
00:00:06.388,0.00679376581683755,0,
00:00:06.392,-0.00335308443754911,0,
00:00:06.396,-0.00840657763183117,0,
00:00:06.4,0.00010645678412402,0,
00:00:06.404,0.0101072052493691,0,
00:00:06.408,0.00606825249269605,0,
00:00:06.412,-0.013297968544066,0,
00:00:06.416,-0.00768807111307979,0,
00:00:06.42,0.0100851431488991,0,
00:00:06.424,0.00285640265792608,0,
00:00:06.428,-0.0024575418792665,0,
00:00:06.432,-0.00139150733593851,0,
00:00:06.436,0.0046586343087256,0,
00:00:06.44,0.00150344928260893,0,
00:00:06.444,-0.0062657087109983,0,
00:00:06.448,-0.00347222131676972,0,
00:00:06.452,0.00499051902443171,0,
00:00:06.456,0.00321400514803827,0,
00:00:06.46,-0.00449964636936784,0,
00:00:06.464,-0.00247143628075719,0,
00:00:06.468,0.00508251879364252,0,
00:00:06.472,0.00271581602282822,0,
00:00:06.476,-0.00513908080756664,0,
00:00:06.48,-0.00499927205964923,0,
00:00:06.484,0.00690763490274549,0,
00:00:06.488,0.00652383081614971,0,
00:00:06.492,-0.0067454744130373,0,
00:00:06.496,-0.00523931719362736,0,
00:00:06.5,0.00173487165011466,0,
00:00:06.504,0.00706641050055623,0,
00:00:06.508,-0.00231056450866163,0,
00:00:06.512,-0.00532151339575648,0,
00:00:06.516,-0.00134440313559026,0,
00:00:06.52,0.00846039038151503,0,
00:00:06.524,0.0014163568848744,0,
00:00:06.528,-0.00888058356940746,0,
00:00:06.532,-0.0015481086447835,0,
00:00:06.536,0.0090275788679719,0,
00:00:06.54,-0.000322159234201536,0,
00:00:06.544,-0.0048739961348474,0,
00:00:06.548,-0.00212312629446387,0,
00:00:06.552,0.0052628074772656,0,
00:00:06.556,0.0026163449510932,0,
00:00:06.56,-0.00535306381061673,0,
00:00:06.564,-0.00308341044001281,0,
00:00:06.568,0.00489727733656764,0,
00:00:06.572,0.00495022628456354,0,
00:00:06.576,-0.00681474525481462,0,
00:00:06.58,-0.00430823536589742,0,
00:00:06.584,0.00487893121317029,0,
00:00:06.588,0.00364172644913197,0,
00:00:06.592,-0.00399981718510389,0,
00:00:06.596,-0.00428836327046156,0,
00:00:06.6,0.0070168562233448,0,
00:00:06.604,0.0041319178417325,0,
00:00:06.608,-0.00106109445914626,0,
00:00:06.612,-0.00995602458715439,0,
00:00:06.616,-0.00160010880790651,0,
00:00:06.62,0.00953331217169762,0,
00:00:06.624,0.00237010139971972,0,
00:00:06.628,-0.00849282834678888,0,
00:00:06.632,0.000438521819887683,0,
00:00:06.636,0.00468466617166996,0,
00:00:06.64,0.00183115783147514,0,
00:00:06.644,-0.00756731862202287,0,
00:00:06.648,-0.000735272653400898,0,
00:00:06.652,0.00701980199664831,0,
00:00:06.656,0.00541988154873252,0,
00:00:06.66,-0.00763309048488736,0,
00:00:06.664,-0.00549798971042037,0,
00:00:06.668,0.00196126219816506,0,
00:00:06.672,0.00745742954313755,0,
00:00:06.676,-0.00408785929903388,0,
00:00:06.68,-0.00324374996125698,0,
00:00:06.684,0.0023096518125385,0,
00:00:06.688,0.00652486691251397,0,
00:00:06.692,-0.00326702604070306,0,
00:00:06.696,-0.00817214418202639,0,
00:00:06.7,0.00238168332725763,0,
00:00:06.704,0.00821139570325613,0,
00:00:06.708,-0.00183349591679871,0,
00:00:06.712,-0.00556081859394908,0,
00:00:06.716,-0.00190254300832748,0,
00:00:06.72,0.00590457394719124,0,
00:00:06.724,0.00111050542909652,0,
00:00:06.728,-0.00312923989258707,0,
00:00:06.732,-0.001508949091658,0,
00:00:06.736,0.00691541144624352,0,
00:00:06.74,-0.000180479619302787,0,
00:00:06.744,-0.00972344167530537,0,
00:00:06.748,-0.00152077071834356,0,
00:00:06.752,0.00958995707333088,0,
00:00:06.756,0.000330249371472746,0,
00:00:06.76,-0.00444100704044104,0,
00:00:06.764,7.44167627999559E-05,0,
00:00:06.768,0.00110006693284959,0,
00:00:06.772,0.00274956249631941,0,
00:00:06.776,-0.00405399594455957,0,
00:00:06.78,-0.00213845307007432,0,
00:00:06.784,0.00509270559996367,0,
00:00:06.788,0.00253325258381665,0,
00:00:06.792,-0.00325416936539114,0,
00:00:06.796,-0.00706520304083824,0,
00:00:06.8,0.00321156298741698,0,
00:00:06.804,0.00840824749320745,0,
00:00:06.808,-0.00209430488757789,0,
00:00:06.812,-0.00595404813066125,0,
00:00:06.816,-0.0021829332690686,0,
00:00:06.82,0.00790025945752859,0,
00:00:06.824,0.00128998246509582,0,
00:00:06.828,-0.00868061371147633,0,
00:00:06.832,0.000842191802803427,0,
00:00:06.836,0.00522731523960829,0,
00:00:06.84,0.00219454406760633,0,
00:00:06.844,-0.00540604814887047,0,
00:00:06.848,-0.00490910187363625,0,
00:00:06.852,0.00715710548684001,0,
00:00:06.856,0.00672852573916316,0,
00:00:06.86,-0.00667994190007448,0,
00:00:06.864,-0.00529876351356506,0,
00:00:06.868,0.00161971698980778,0,
00:00:06.872,0.00696433614939451,0,
00:00:06.876,-0.00236270530149341,0,
00:00:06.88,-0.00739837298169732,0,
00:00:06.884,0.00273581664077938,0,
00:00:06.888,0.00608560768887401,0,
00:00:06.892,-0.000126500453916378,0,
00:00:06.896,-0.00420111278072,0,
00:00:06.9,-0.00189540337305516,0,
00:00:06.904,0.00710623944178224,0,
00:00:06.908,-0.00182938913349062,0,
00:00:06.912,-0.00738641619682312,0,
00:00:06.916,0.00235195853747427,0,
00:00:06.92,0.00775167532265186,0,
00:00:06.924,-0.00229496345855296,0,
00:00:06.928,-0.00578610226511955,0,
00:00:06.932,-0.00186987826600671,0,
00:00:06.936,0.00608587404713035,0,
00:00:06.94,0.0033819938544184,0,
00:00:06.944,-0.00498236669227481,0,
00:00:06.948,-0.003123584901914,0,
00:00:06.952,0.00462293205782771,0,
00:00:06.956,0.00257569807581604,0,
00:00:06.96,-0.00502633908763528,0,
00:00:06.964,-0.00270820967853069,0,
00:00:06.968,0.00511653535068035,0,
00:00:06.972,0.00496930908411741,0,
00:00:06.976,-0.00485315406695008,0,
00:00:06.98,-0.00850623846054077,0,
00:00:06.984,0.00510767102241516,0,
00:00:06.988,0.00507129263132811,0,
00:00:06.992,-0.00295999995432794,0,
00:00:06.996,-0.00198380998335779,0,
00:00:07,0.00260767992585897,0,
00:00:07.004,0.00601149816066027,0,
00:00:07.008,-0.0040302025154233,0,
00:00:07.012,-0.00872263591736555,0,
00:00:07.016,0.000142960765515454,0,
00:00:07.02,0.0103372968733311,0,
00:00:07.024,0.00216264557093382,0,
00:00:07.028,-0.00919711403548718,0,
00:00:07.032,-0.00229828176088631,0,
00:00:07.036,0.0084106819704175,0,
00:00:07.04,0.00152569392230362,0,
00:00:07.044,-0.00672529684379697,0,
00:00:07.048,-0.00347523181699216,0,
00:00:07.052,0.00327836768701673,0,
00:00:07.056,0.00557719869539142,0,
00:00:07.06,-0.000598873302806169,0,
00:00:07.064,-0.00640020752325654,0,
00:00:07.068,0.00645542936399579,0,
00:00:07.072,0.000974508409854025,0,
00:00:07.076,-0.00651913834735751,0,
00:00:07.08,-0.00510327657684684,0,
00:00:07.084,0.00769310910254717,0,
00:00:07.088,0.00539804995059967,0,
00:00:07.092,-0.00209472328424454,0,
00:00:07.096,-0.00754147302359343,0,
00:00:07.1,0.00407541217282414,0,
00:00:07.104,0.00535755790770054,0,
00:00:07.108,-0.00423233769834042,0,
00:00:07.112,-0.00812780112028122,0,
00:00:07.116,0.00102876627352089,0,
00:00:07.12,0.0109841711819172,0,
00:00:07.124,0.000272494682576507,0,
00:00:07.128,-0.00534241087734699,0,
00:00:07.132,-0.00298625812865794,0,
00:00:07.136,0.00456512765958905,0,
00:00:07.14,0.00233211368322372,0,
00:00:07.144,-0.00526397209614515,0,
00:00:07.148,-0.00280965771526098,0,
00:00:07.152,0.00516342045739293,0,
00:00:07.156,0.0050983359105885,0,
00:00:07.16,-0.00887485407292843,0,
00:00:07.164,-0.00240140524692833,0,
00:00:07.168,0.00643265340477228,0,
00:00:07.172,0.00583253568038344,0,
00:00:07.176,-0.00683788163587451,0,
00:00:07.18,-0.006944898981601,0,
00:00:07.184,0.00623612897470593,0,
00:00:07.188,0.00491634756326675,0,
00:00:07.192,-0.00179698190186173,0,
00:00:07.196,-0.00486610177904367,0,
00:00:07.2,0.000519086665008217,0,
00:00:07.204,0.00589641276746988,0,
00:00:07.208,-0.00282756891101599,0,
00:00:07.212,-0.00730186142027378,0,
00:00:07.216,0.00309903500601649,0,
00:00:07.22,0.00642876606434584,0,
00:00:07.224,0.00211996119469404,0,
00:00:07.228,-0.00618734862655401,0,
00:00:07.232,-0.0036534876562655,0,
00:00:07.236,0.00472418265417218,0,
00:00:07.24,0.00298242690041661,0,
00:00:07.244,-0.00255984487012029,0,
00:00:07.248,-0.00655908137559891,0,
00:00:07.252,0.00544526241719723,0,
00:00:07.256,0.00423257844522595,0,
00:00:07.26,-0.00407824013382196,0,
00:00:07.264,-0.000646153639536351,0,
00:00:07.268,0.00255502969957888,0,
00:00:07.272,0.000599679304286838,0,
00:00:07.276,-0.00344598805531859,0,
00:00:07.28,-0.00607898272573948,0,
00:00:07.284,0.00648205913603306,0,
00:00:07.288,0.00509251654148102,0,
00:00:07.292,-0.00165818817913532,0,
00:00:07.296,-0.00690364185720682,0,
00:00:07.3,0.0044983490370214,0,
00:00:07.304,0.00335516594350338,0,
00:00:07.308,-0.00451984442770481,0,
00:00:07.312,-0.00270603923127055,0,
00:00:07.316,0.00273863854818046,0,
00:00:07.32,0.0045396601781249,0,
00:00:07.324,-0.00141866505146027,0,
00:00:07.328,-0.00461635459214449,0,
00:00:07.332,0.00049970526015386,0,
00:00:07.336,0.00366656435653567,0,
00:00:07.34,-0.000986548140645027,0,
00:00:07.344,-0.00362343201413751,0,
00:00:07.348,-0.000726364611182362,0,
00:00:07.352,0.00600675353780389,0,
00:00:07.356,0.00263368315063417,0,
00:00:07.36,-0.00575953023508191,0,
00:00:07.364,-0.00354978116229177,0,
00:00:07.368,0.00253041298128664,0,
00:00:07.372,0.00686792936176062,0,
00:00:07.376,-0.00714177871122956,0,
00:00:07.38,-0.00199752394109964,0,
00:00:07.384,0.00579932471737266,0,
00:00:07.388,0.00283859157934785,0,
00:00:07.392,-0.00341328512877226,0,
00:00:07.396,-0.00534339481964707,0,
00:00:07.4,0.000950085406657308,0,
00:00:07.404,0.00459149992093444,0,
00:00:07.408,-0.000227630618610419,0,
00:00:07.412,-0.00332426954992116,0,
00:00:07.416,-0.000846925075165927,0,
00:00:07.42,0.00775659643113613,0,
00:00:07.424,-0.00172887917142361,0,
00:00:07.428,-0.00559766218066216,0,
00:00:07.432,-0.00210140342824161,0,
00:00:07.436,0.00778261199593544,0,
00:00:07.44,-0.000946215935982764,0,
00:00:07.444,-0.00472456682473421,0,
00:00:07.448,-0.00156891020014882,0,
00:00:07.452,0.00579849490895867,0,
00:00:07.456,0.00289199291728437,0,
00:00:07.46,-0.00536108529195189,0,
00:00:07.464,-0.00326136243529618,0,
00:00:07.468,0.002616893267259,0,
00:00:07.472,0.00471583474427462,0,
00:00:07.476,-0.00115729321260005,0,
00:00:07.48,-0.00442757084965706,0,
00:00:07.484,0.00263467594049871,0,
00:00:07.488,0.00164609716739506,0,
00:00:07.492,-0.00479256734251976,0,
00:00:07.496,0.000174572312971577,0,
00:00:07.5,0.00182239164132625,0,
00:00:07.504,0.00359635753557086,0,
00:00:07.508,-0.00144935306161642,0,
00:00:07.512,-0.00611386355012655,0,
00:00:07.516,0.00309865036979318,0,
00:00:07.52,0.00769696477800608,0,
00:00:07.524,-0.000760845956392586,0,
00:00:07.528,-0.00835352763533592,0,
00:00:07.532,-0.00386828766204417,0,
00:00:07.536,0.00585276819765568,0,
00:00:07.54,0.00229849317111075,0,
00:00:07.544,0.000305091904010624,0,
00:00:07.548,-0.00267112418077886,0,
00:00:07.552,0.00329742534086108,0,
00:00:07.556,0.00123121694196016,0,
00:00:07.56,-0.00568130146712065,0,
00:00:07.564,-0.00267029507085681,0,
00:00:07.568,0.00344728771597147,0,
00:00:07.572,0.0052963332273066,0,
00:00:07.576,-0.00306875095702708,0,
00:00:07.58,-0.00468868296593428,0,
00:00:07.584,0.00596516858786345,0,
00:00:07.588,0.00530135352164507,0,
00:00:07.592,-0.00546759460121393,0,
00:00:07.596,-0.00945161562412977,0,
00:00:07.6,0.00445088883861899,0,
00:00:07.604,0.00494263926520944,0,
00:00:07.608,-0.00267267203889787,0,
00:00:07.612,-0.00362348183989525,0,
00:00:07.616,0.00700872996822,0,
00:00:07.62,0.00583358947187662,0,
00:00:07.624,-0.00759386131539941,0,
00:00:07.628,-0.00788371730595827,0,
00:00:07.632,0.00770615879446268,0,
00:00:07.636,0.0028376632835716,0,
00:00:07.64,-0.00317010981962085,0,
00:00:07.644,-0.00672804424539208,0,
00:00:07.648,0.00364141957834363,0,
00:00:07.652,0.00454191584140062,0,
00:00:07.656,0.00605319440364838,0,
00:00:07.66,-0.00676121655851603,0,
00:00:07.664,-0.00531781790778041,0,
00:00:07.668,0.00362211978062987,0,
00:00:07.672,0.00282335816882551,0,
00:00:07.676,-0.00415836786851287,0,
00:00:07.68,-0.001880535739474,0,
00:00:07.684,0.00553888827562332,0,
00:00:07.688,0.002880800049752,0,
00:00:07.692,-0.00522425910457969,0,
00:00:07.696,-0.00312256463803351,0,
00:00:07.7,0.00475040916353464,0,
00:00:07.704,0.00271167396567762,0,
00:00:07.708,-0.000798381748609245,0,
00:00:07.712,-0.00872897170484066,0,
00:00:07.716,-0.000383290112949908,0,
00:00:07.72,0.00808266643434763,0,
00:00:07.724,0.00431032618507743,0,
00:00:07.728,-0.00313197355717421,0,
00:00:07.732,-0.00797954294830561,0,
00:00:07.736,0.00626186933368444,0,
00:00:07.74,0.00374742201529443,0,
00:00:07.744,-0.00968791451305151,0,
00:00:07.748,-0.00211431621573865,0,
00:00:07.752,0.00731655489653349,0,
00:00:07.756,0.00250451639294624,0,
00:00:07.76,-0.000420781725551933,0,
00:00:07.764,-0.00362308975309134,0,
00:00:07.768,0.00265277549624443,0,
00:00:07.772,0.00106895470526069,0,
00:00:07.776,-0.00547564495354891,0,
00:00:07.78,-0.00440500071272254,0,
00:00:07.784,0.00570041732862592,0,
00:00:07.788,0.00913730915635824,0,
00:00:07.792,-0.00281086005270481,0,
00:00:07.796,-0.00716753024607897,0,
00:00:07.8,-0.00103038921952248,0,
00:00:07.804,0.00353631400503218,0,
00:00:07.808,-0.00232384260743856,0,
00:00:07.812,-0.000756772700697184,0,
00:00:07.816,0.00355670694261789,0,
00:00:07.82,0.00639542238786817,0,
00:00:07.824,-0.00411536451429129,0,
00:00:07.828,-0.00902320817112923,0,
00:00:07.832,-0.000140450822073035,0,
00:00:07.836,0.0122689390555024,0,
00:00:07.84,-0.00188569165766239,0,
00:00:07.844,-0.00669909082353115,0,
00:00:07.848,-0.00270692026242614,0,
00:00:07.852,0.00577820464968681,0,
00:00:07.856,0.00352516560815275,0,
00:00:07.86,-0.00258136540651321,0,
00:00:07.864,-0.00690270820632577,0,
00:00:07.868,0.00506688188761473,0,
00:00:07.872,0.00400208542123437,0,
00:00:07.876,-0.00411951867863536,0,
00:00:07.88,-0.00263278046622872,0,
00:00:07.884,0.0025826976634562,0,
00:00:07.888,0.00846490915864706,0,
00:00:07.892,-0.00761685008183122,0,
00:00:07.896,-0.0101433545351028,0,
00:00:07.9,0.00576154096052051,0,
00:00:07.904,0.0109547255560756,0,
00:00:07.908,-0.00133283459581435,0,
00:00:07.912,-0.00668378407135606,0,
00:00:07.916,-0.00134772248566151,0,
00:00:07.92,0.00498826149851084,0,
00:00:07.924,-0.00273290602490306,0,
00:00:07.928,-0.00458086654543877,0,
00:00:07.932,-0.00234529282897711,0,
00:00:07.936,0.0132923759520054,0,
00:00:07.94,-0.000737737573217601,0,
00:00:07.944,-0.00646692747250199,0,
00:00:07.948,-0.00533030973747373,0,
00:00:07.952,0.00696764979511499,0,
00:00:07.956,0.00667227106168866,0,
00:00:07.96,-0.00663610966876149,0,
00:00:07.964,-0.00519814109429717,0,
00:00:07.968,0.00380181311629713,0,
00:00:07.972,0.00298739015124738,0,
00:00:07.976,-0.00407615629956126,0,
00:00:07.98,-0.00188940565567464,0,
00:00:07.984,0.00547398626804352,0,
00:00:07.988,0.00280691706575453,0,
00:00:07.992,-0.00527383061125875,0,
00:00:07.996,-0.0031376441475004,0,
00:00:08,0.000609997543506324,0,
00:00:08.004,0.00875965133309364,0,
00:00:08.008,-0.00154705520253628,0,
00:00:08.012,-0.0101088080555201,0,
00:00:08.016,0.00344654941000044,0,
00:00:08.02,0.0087837390601635,0,
00:00:08.024,-0.000212617873330601,0,
00:00:08.028,-0.00635809730738401,0,
00:00:08.032,-0.0103649534285069,0,
00:00:08.036,0.00783774349838495,0,
00:00:08.04,0.00321284751407802,0,
00:00:08.044,0.00770659977570176,0,
00:00:08.048,-0.00339158647693694,0,
00:00:08.052,-0.0196594353765249,0,
00:00:08.056,-0.0014316908782348,0,
00:00:08.06,0.0379103980958462,0,
00:00:08.064,0.0176136735826731,0,
00:00:08.068,-0.0385018512606621,0,
00:00:08.072,-0.0150315165519714,0,
00:00:08.076,-0.00921058747917414,0,
00:00:08.08,0.00543406000360847,0,
00:00:08.084,0.0131006008014083,0,
00:00:08.088,0.0115994606167078,0,
00:00:08.092,0.0113238003104925,0,
00:00:08.096,-0.0239214915782213,0,
00:00:08.1,0.0122221885249019,0,
00:00:08.104,0.0307597424834967,0,
00:00:08.108,-0.0316053070127964,0,
00:00:08.112,-0.0381033644080162,0,
00:00:08.116,0.00884503033012152,0,
00:00:08.12,0.020076809450984,0,
00:00:08.124,0.00541013479232788,0,
00:00:08.128,0.00264933705329895,0,
00:00:08.132,0.00793098006397486,0,
00:00:08.136,0.0108798667788506,0,
00:00:08.14,-0.0241728443652391,0,
00:00:08.144,-0.00557542871683836,0,
00:00:08.148,0.00943230651319027,0,
00:00:08.152,-0.0135902147740126,0,
00:00:08.156,-0.000722599623259157,0,
00:00:08.16,0.0129824671894312,0,
00:00:08.164,0.00566961383447051,0,
00:00:08.168,-0.00484579661861062,0,
00:00:08.172,-0.00596360489726067,0,
00:00:08.176,0.00358725315891206,0,
00:00:08.18,0.00549055030569434,0,
00:00:08.184,-0.00561554171144962,0,
00:00:08.188,-0.00349270273000002,0,
00:00:08.192,0.0111634042114019,0,
00:00:08.196,0.00550102861598134,0,
00:00:08.2,-0.0133614717051387,0,
00:00:08.204,-0.00339731341227889,0,
00:00:08.208,-0.0127283306792378,0,
00:00:08.212,-0.0268428977578878,0,
00:00:08.216,0.0256810933351517,0,
00:00:08.22,0.084228977560997,0,
00:00:08.224,0.0270286332815886,0,
00:00:08.228,-0.119729198515415,0,
00:00:08.232,-0.0373879000544548,0,
00:00:08.236,0.0294404923915863,0,
00:00:08.24,0.0402293130755425,0,
00:00:08.244,0.00431578233838081,0,
00:00:08.248,-0.00823374558240175,0,
00:00:08.252,0.0173160340636969,0,
00:00:08.256,-0.0197864510118961,0,
00:00:08.26,-0.00262975180521607,0,
00:00:08.264,-0.00205432181246579,0,
00:00:08.268,0.0119343977421522,0,
00:00:08.272,0.00179271190427244,0,
00:00:08.276,-0.0174937378615141,0,
00:00:08.28,-0.00461805192753673,0,
00:00:08.284,0.0205155033618212,0,
00:00:08.288,0.0075445300899446,0,
00:00:08.292,-0.0132618444040418,0,
00:00:08.296,-0.0140217449516058,0,
00:00:08.3,0.000980829005129635,0,
00:00:08.304,0.001933648949489,0,
00:00:08.308,0.0219904743134975,0,
00:00:08.312,0.0191882867366076,0,
00:00:08.316,-0.0309494454413652,0,
00:00:08.32,-0.00498193968087435,0,
00:00:08.324,0.0111722908914089,0,
00:00:08.328,-0.0237428024411201,0,
00:00:08.332,-0.0129881724715233,0,
00:00:08.336,0.0223703645169735,0,
00:00:08.34,0.0330900400876999,0,
00:00:08.344,-0.0136684235185385,0,
00:00:08.348,-0.00538015319034457,0,
00:00:08.352,-0.00649252440780401,0,
00:00:08.356,-0.00806330796331167,0,
00:00:08.36,-0.000741440686397254,0,
00:00:08.364,0.0131121343001723,0,
00:00:08.368,0.012391391210258,0,
00:00:08.372,-0.016967648640275,0,
00:00:08.376,-0.0140091646462679,0,
00:00:08.38,0.00637181755155325,0,
00:00:08.384,0.00318820378743112,0,
00:00:08.388,0.0213564187288284,0,
00:00:08.392,-0.00303824292495847,0,
00:00:08.396,-0.0293714795261621,0,
00:00:08.4,0.0156919751316309,0,
00:00:08.404,0.0125491237267852,0,
00:00:08.408,-0.0216254778206348,0,
00:00:08.412,0.0110087692737579,0,
00:00:08.416,-0.0108230086043477,0,
00:00:08.42,0.00333047029562294,0,
00:00:08.424,0.0236866846680641,0,
00:00:08.428,-0.00697214528918266,0,
00:00:08.432,-0.0165123902261257,0,
00:00:08.436,0.00749105028808117,0,
00:00:08.44,0.00604585185647011,0,
00:00:08.444,-0.0258691571652889,0,
00:00:08.448,-0.00211947597563267,0,
00:00:08.452,0.0159113109111786,0,
00:00:08.456,0.0154590858146548,0,
00:00:08.46,-4.23654673795681E-05,0,
00:00:08.464,-0.00752724474295974,0,
00:00:08.468,-0.00118858681526035,0,
00:00:08.472,-0.00309461541473866,0,
00:00:08.476,0.00242076837457716,0,
00:00:08.48,0.000340603612130508,0,
00:00:08.484,-0.010177243500948,0,
00:00:08.488,-0.000490706996060908,0,
00:00:08.492,0.0259899944067001,0,
00:00:08.496,-0.0119882198050618,0,
00:00:08.5,-0.0174981374293566,0,
00:00:08.504,0.0087126474827528,0,
00:00:08.508,0.012362957932055,0,
00:00:08.512,-0.0132141336798668,0,
00:00:08.516,-0.0116554759442806,0,
00:00:08.52,0.0193674713373184,0,
00:00:08.524,-0.00687416875734925,0,
00:00:08.528,0.000990428612567484,0,
00:00:08.532,0.0209993235766888,0,
00:00:08.536,-0.00202645524404943,0,
00:00:08.54,-0.0120861697942019,0,
00:00:08.544,-0.0192551221698523,0,
00:00:08.548,-0.00492650829255581,0,
00:00:08.552,0.00995517708361149,0,
00:00:08.556,0.0139154652133584,0,
00:00:08.56,0.0109256776049733,0,
00:00:08.564,-0.0051900465041399,0,
00:00:08.568,-0.0128737902268767,0,
00:00:08.572,0.00651087472215295,0,
00:00:08.576,-0.00789181422442198,0,
00:00:08.58,-0.0126373702660203,0,
00:00:08.584,0.0078929839655757,0,
00:00:08.588,0.0241079293191433,0,
00:00:08.592,0.00939035508781672,0,
00:00:08.596,-0.023553941398859,0,
00:00:08.6,-0.0145066641271114,0,
00:00:08.604,0.00538409641012549,0,
00:00:08.608,0.00355038815177977,0,
00:00:08.612,-0.00258963066153228,0,
00:00:08.616,0.0108855804428458,0,
00:00:08.62,0.0063029183074832,0,
00:00:08.624,-0.00755600910633802,0,
00:00:08.628,0.0004540219088085,0,
00:00:08.632,-0.00033721886575222,0,
00:00:08.636,-0.0103448461741209,0,
00:00:08.64,-0.000537001003976911,0,
00:00:08.644,0.0259324815124273,0,
00:00:08.648,-0.0182899888604879,0,
00:00:08.652,-0.00955707486718893,0,
00:00:08.656,0.00748576363548636,0,
00:00:08.66,0.00483135739341378,0,
00:00:08.664,0.00557041633874178,0,
00:00:08.668,-0.00490272836759686,0,
00:00:08.672,-0.00505304103717208,0,
00:00:08.676,-0.00590164912864566,0,
00:00:08.68,0.00302700279280543,0,
00:00:08.684,0.0137619646266103,0,
00:00:08.688,-0.00209524924866855,0,
00:00:08.692,-0.00781088741496205,0,
00:00:08.696,-0.0163019299507141,0,
00:00:08.7,0.0232087597250938,0,
00:00:08.704,0.00530476123094559,0,
00:00:08.708,-0.00209045480005443,0,
00:00:08.712,0.0104053616523743,0,
00:00:08.716,-0.038090206682682,0,
00:00:08.72,0.000115008864668198,0,
00:00:08.724,0.0144572518765926,0,
00:00:08.728,0.00238041067495942,0,
00:00:08.732,0.00411239452660084,0,
00:00:08.736,0.0070332707837224,0,
00:00:08.74,-0.00358734489418566,0,
00:00:08.744,-0.00701892981305718,0,
00:00:08.748,0.00134272919967771,0,
00:00:08.752,0.00364165706560016,0,
00:00:08.756,0.00619436474516988,0,
00:00:08.76,-0.0148773631080985,0,
00:00:08.764,-0.00807414390146732,0,
00:00:08.768,0.00692594284191728,0,
00:00:08.772,0.00622268719598651,0,
00:00:08.776,0.00808662734925747,0,
00:00:08.78,-0.0133232660591602,0,
00:00:08.784,0.0261209011077881,0,
00:00:08.788,-0.00155456108041108,0,
00:00:08.792,-0.0274947099387646,0,
00:00:08.796,-0.016733942553401,0,
00:00:08.8,0.00340254954062402,0,
00:00:08.804,0.0206334069371223,0,
00:00:08.808,0.00991957820951939,0,
00:00:08.812,0.00171318755019456,0,
00:00:08.816,-0.00113987852819264,0,
00:00:08.82,-0.00252157240174711,0,
00:00:08.824,-0.00718307495117188,0,
00:00:08.828,-0.00703549990430474,0,
00:00:08.832,-0.000928897352423519,0,
00:00:08.836,0.0016152918105945,0,
00:00:08.84,0.00668794102966785,0,
00:00:08.844,0.0150757180526853,0,
00:00:08.848,-0.00911146216094494,0,
00:00:08.852,-0.00612164661288261,0,
00:00:08.856,0.00062652345513925,0,
00:00:08.86,-0.0131624657660723,0,
00:00:08.864,0.00358239095658064,0,
00:00:08.868,0.0141948936507106,0,
00:00:08.872,-0.00658460753038526,0,
00:00:08.876,0.000192677325685509,0,
00:00:08.88,0.00239923829212785,0,
00:00:08.884,0.00169002288021147,0,
00:00:08.888,0.00836389604955912,0,
00:00:08.892,-0.000734448141884059,0,
00:00:08.896,-0.0179783180356026,0,
00:00:08.9,-0.0104702766984701,0,
00:00:08.904,0.0141404811292887,0,
00:00:08.908,0.00936969555914402,0,
00:00:08.912,-0.00229696556925774,0,
00:00:08.916,-0.00121613231021911,0,
00:00:08.92,-0.00317030446603894,0,
00:00:08.924,-0.00520944688469172,0,
00:00:08.928,0.00697361212223768,0,
00:00:08.932,0.0215589664876461,0,
00:00:08.936,-0.0180083923041821,0,
00:00:08.94,-0.0185583829879761,0,
00:00:08.944,-0.0138063495978713,0,
00:00:08.948,0.0138796782121062,0,
00:00:08.952,0.0479372814297676,0,
00:00:08.956,0.00822617579251528,0,
00:00:08.96,-0.0442312397062778,0,
00:00:08.964,-0.0285579431802034,0,
00:00:08.968,0.00856013130396605,0,
00:00:08.972,0.015758603811264,0,
00:00:08.976,0.00829655863344669,0,
00:00:08.98,0.00050475838361308,0,
00:00:08.984,0.0114868795499206,0,
00:00:08.988,0.0124860079959035,0,
00:00:08.992,-0.0253385696560144,0,
00:00:08.996,-0.0140841249376535,0,
00:00:09,0.00946907792240381,0,
00:00:09.004,-0.00104308547452092,0,
00:00:09.008,-0.00442646676674485,0,
00:00:09.012,-0.00203397963196039,0,
00:00:09.016,0.0102262832224369,0,
00:00:09.02,0.0255190934985876,0,
00:00:09.024,-0.00908562541007996,0,
00:00:09.028,-0.0116752041503787,0,
00:00:09.032,-0.0155462389811873,0,
00:00:09.036,-0.00212892307899892,0,
00:00:09.04,0.00595431961119175,0,
00:00:09.044,0.00341543857939541,0,
00:00:09.048,0.0109414318576455,0,
00:00:09.052,0.00237908470444381,0,
00:00:09.056,-0.00301126064732671,0,
00:00:09.06,-0.00659030908718705,0,
00:00:09.064,-0.00338118383660913,0,
00:00:09.068,-0.0016090334393084,0,
00:00:09.072,0.0127019435167313,0,
00:00:09.076,-0.00185658375266939,0,
00:00:09.08,-0.0114047722890973,0,
00:00:09.084,0.0151177002117038,0,
00:00:09.088,-0.000971818051766604,0,
00:00:09.092,-0.0156797263771296,0,
00:00:09.096,-0.0149221317842603,0,
00:00:09.1,0.00801585707813501,0,
00:00:09.104,0.0255351979285479,0,
00:00:09.108,0.0154770445078611,0,
00:00:09.112,-0.0153934983536601,0,
00:00:09.116,-0.0120522174984217,0,
00:00:09.12,-0.012498171068728,0,
00:00:09.124,0.0032716931309551,0,
00:00:09.128,0.00778710283339024,0,
00:00:09.132,0.00796062033623457,0,
00:00:09.136,0.00201843143440783,0,
00:00:09.14,-0.00486508943140507,0,
00:00:09.144,-0.00432828674092889,0,
00:00:09.148,-0.00352610717527568,0,
00:00:09.152,0.00290382700040936,0,
00:00:09.156,0.00554497260600328,0,
00:00:09.16,-0.00448206858709455,0,
00:00:09.164,-5.10679856233764E-05,0,
00:00:09.168,0.00587929366156459,0,
00:00:09.172,0.00167271681129932,0,
00:00:09.176,-0.00270021078176796,0,
00:00:09.18,-0.00815652497112751,0,
00:00:09.184,-0.00082106445915997,0,
00:00:09.188,0.011007689870894,0,
00:00:09.192,-0.011027024127543,0,
00:00:09.196,-0.0092174056917429,0,
00:00:09.2,0.010149504058063,0,
00:00:09.204,0.0110829556360841,0,
00:00:09.208,0.0210826192051172,0,
00:00:09.212,0.00494309514760971,0,
00:00:09.216,-0.0442025810480118,0,
00:00:09.22,-0.0181870404630899,0,
00:00:09.224,0.0058091264218092,0,
00:00:09.228,0.0184623561799526,0,
00:00:09.232,0.012482050806284,0,
00:00:09.236,0.00680776312947273,0,
00:00:09.24,-0.00574243813753128,0,
00:00:09.244,-0.00243544299155474,0,
00:00:09.248,0.00304327323101461,0,
00:00:09.252,-0.0092006353661418,0,
00:00:09.256,-0.00899477303028107,0,
00:00:09.26,-0.0050047105178237,0,
00:00:09.264,0.00909403525292873,0,
00:00:09.268,0.0240952372550964,0,
00:00:09.272,-0.0137155270203948,0,
00:00:09.276,-0.00450090318918228,0,
00:00:09.28,-0.00366703444160521,0,
00:00:09.284,-0.00482317199930549,0,
00:00:09.288,0.00761319370940328,0,
00:00:09.292,0.0076710656285286,0,
00:00:09.296,-0.00367524428293109,0,
00:00:09.3,-0.00883748568594456,0,
00:00:09.304,-0.00425823125988245,0,
00:00:09.308,0.00989576615393162,0,
00:00:09.312,0.0175307858735323,0,
00:00:09.316,-0.0135449133813381,0,
00:00:09.32,-0.00813833251595497,0,
00:00:09.324,0.0040837749838829,0,
00:00:09.328,-0.00615853955969214,0,
00:00:09.332,-0.00188713415991515,0,
00:00:09.336,0.00551674468442798,0,
00:00:09.34,0.00526816723868251,0,
00:00:09.344,0.00411657756194472,0,
00:00:09.348,-0.0112358974292874,0,
00:00:09.352,0.00601064553484321,0,
00:00:09.356,0.00854841247200966,0,
00:00:09.36,-0.0070448461920023,0,
00:00:09.364,-0.0156893320381641,0,
00:00:09.368,0.00126474117860198,0,
00:00:09.372,0.0206976886838675,0,
00:00:09.376,0.00588578870519996,0,
00:00:09.38,-0.0167813822627068,0,
00:00:09.384,-0.00427774246782064,0,
00:00:09.388,-0.000884365988895297,0,
00:00:09.392,-0.00161097606178373,0,
00:00:09.396,0.00341894454322755,0,
00:00:09.4,0.0139933153986931,0,
00:00:09.404,0.00254081608727574,0,
00:00:09.408,-0.0156050603836775,0,
00:00:09.412,0.000838893640320748,0,
00:00:09.416,0.0119229312986135,0,
00:00:09.42,-0.00627303030341864,0,
00:00:09.424,-0.00511272018775344,0,
00:00:09.428,-0.0063070198521018,0,
00:00:09.432,-0.00167790369596332,0,
00:00:09.436,0.0112321507185698,0,
00:00:09.44,0.007306142244488,0,
00:00:09.444,2.36447358474834E-05,0,
00:00:09.448,-0.00855004321783781,0,
00:00:09.452,-0.00294095417484641,0,
00:00:09.456,0.000476414657896385,0,
00:00:09.46,-0.000300517014693469,0,
00:00:09.464,-0.0047440561465919,0,
00:00:09.468,0.016505179926753,0,
00:00:09.472,0.0131878741085529,0,
00:00:09.476,-0.019512077793479,0,
00:00:09.48,-0.0216577481478453,0,
00:00:09.484,0.00594608951359987,0,
00:00:09.488,0.0184590145945549,0,
00:00:09.492,-0.00204705563373864,0,
00:00:09.496,-0.00785278249531984,0,
00:00:09.5,0.0117236245423555,0,
00:00:09.504,0.00746022397652268,0,
00:00:09.508,-0.012185693718493,0,
00:00:09.512,-0.0118879163637757,0,
00:00:09.516,0.00446147192269564,0,
00:00:09.52,0.00806222949177027,0,
00:00:09.524,0.000600594445131719,0,
00:00:09.528,-0.0064866216853261,0,
00:00:09.532,-0.000369488261640072,0,
00:00:09.536,0.00229527871124446,0,
00:00:09.54,0.00230345618911088,0,
00:00:09.544,-0.00101974257268012,0,
00:00:09.548,0.00174060394056141,0,
00:00:09.552,0.00279210438020527,0,
00:00:09.556,-0.00273925485089421,0,
00:00:09.56,-0.00510577578097582,0,
00:00:09.564,-0.0055338554084301,0,
00:00:09.568,0.0100877145305276,0,
00:00:09.572,0.0126910852268338,0,
00:00:09.576,-0.0107710920274258,0,
00:00:09.58,-0.00983083806931973,0,
00:00:09.584,0.00207492080517113,0,
00:00:09.588,-0.000197030560229905,0,
00:00:09.592,-0.00219573243521154,0,
00:00:09.596,0.00708631379529834,0,
00:00:09.6,0.00982912722975016,0,
00:00:09.604,0.0116177210584283,0,
00:00:09.608,-0.015456854365766,0,
00:00:09.612,-0.0213921647518873,0,
00:00:09.616,-0.00755552761256695,0,
00:00:09.62,0.0165265277028084,0,
00:00:09.624,0.0185353457927704,0,
00:00:09.628,-0.00594432651996613,0,
00:00:09.632,-0.0054033906199038,0,
00:00:09.636,0.00390335055999458,0,
00:00:09.64,-0.00367479538545012,0,
00:00:09.644,-0.00570696452632546,0,
00:00:09.648,-0.00115627201739699,0,
00:00:09.652,0.00475320126861334,0,
00:00:09.656,0.00580880139023066,0,
00:00:09.66,0.00299112545326352,0,
00:00:09.664,-0.00900332815945148,0,
00:00:09.668,-0.00550179043784738,0,
00:00:09.672,0.00273626996204257,0,
00:00:09.676,0.00207230332307518,0,
00:00:09.68,0.00854069646447897,0,
00:00:09.684,0.00408874871209264,0,
00:00:09.688,-0.010245181620121,0,
00:00:09.692,-0.0117281787097454,0,
00:00:09.696,-0.00100417714565992,0,
00:00:09.7,0.0109891910105944,0,
00:00:09.704,0.0144564006477594,0,
00:00:09.708,-0.0043991100974381,0,
00:00:09.712,-0.0123756341636181,0,
00:00:09.716,-0.00323220761492848,0,
00:00:09.72,0.00667520053684711,0,
00:00:09.724,0.00637100776657462,0,
00:00:09.728,-0.00429488532245159,0,
00:00:09.732,-0.00657996954396367,0,
00:00:09.736,0.00268937810324132,0,
00:00:09.74,-0.00110208604019135,0,
00:00:09.744,-0.00349052436649799,0,
00:00:09.748,0.00615368597209454,0,
00:00:09.752,0.0157417431473732,0,
00:00:09.756,-0.00450804503634572,0,
00:00:09.76,-0.014270631596446,0,
00:00:09.764,-0.00734660867601633,0,
00:00:09.768,0.0097860898822546,0,
00:00:09.772,0.00017078677774407,0,
00:00:09.776,-0.004936917219311,0,
00:00:09.78,0.00234868656843901,0,
00:00:09.784,0.00859721284359694,0,
00:00:09.788,0.00317204021848738,0,
00:00:09.792,-0.00684883026406169,0,
00:00:09.796,-0.00722646107897162,0,
00:00:09.8,0.0074643949046731,0,
00:00:09.804,0.00206532748416066,0,
00:00:09.808,-0.00389072392135859,0,
00:00:09.812,-0.00705738319084048,0,
00:00:09.816,0.00164576899260283,0,
00:00:09.82,0.0109773715957999,0,
00:00:09.824,0.00199051364324987,0,
00:00:09.828,-0.00354467169381678,0,
00:00:09.832,-0.0108576891943812,0,
00:00:09.836,0.00308165955357254,0,
00:00:09.84,0.000440807489212602,0,
00:00:09.844,-0.00242263474501669,0,
00:00:09.848,0.00844547618180513,0,
00:00:09.852,0.0133976368233562,0,
00:00:09.856,-0.00459517724812031,0,
00:00:09.86,-0.0209338832646608,0,
00:00:09.864,-0.00428898865357041,0,
00:00:09.868,0.0140316234901547,0,
00:00:09.872,0.0042610545642674,0,
00:00:09.876,-0.0114868702366948,0,
00:00:09.88,-0.00322767626494169,0,
00:00:09.884,0.0243342444300652,0,
00:00:09.888,0.00265056849457324,0,
00:00:09.892,-0.0154925584793091,0,
00:00:09.896,-0.0150757702067494,0,
00:00:09.9,0.00897708255797625,0,
00:00:09.904,0.00462300283834338,0,
00:00:09.908,-0.000213702645851299,0,
00:00:09.912,0.00213266955688596,0,
00:00:09.916,0.00512147834524512,0,
00:00:09.92,-0.00666775973513722,0,
00:00:09.924,-0.00686358520761132,0,
00:00:09.928,0.0081750089302659,0,
00:00:09.932,0.000661800149828196,0,
00:00:09.936,0.0025644835550338,0,
00:00:09.94,-0.0114991422742605,0,
00:00:09.944,-0.014306228607893,0,
00:00:09.948,0.0290818195790052,0,
00:00:09.952,0.0309178195893765,0,
00:00:09.956,-0.0310468226671219,0,
00:00:09.96,-0.0315523445606232,0,
00:00:09.964,0.000457074551377445,0,
00:00:09.968,0.0182306915521622,0,
00:00:09.972,0.011750714853406,0,
00:00:09.976,0.00746022583916783,0,
00:00:09.98,-0.0108385933563113,0,
00:00:09.984,-0.00423890026286244,0,
00:00:09.988,0.00311458273790777,0,
00:00:09.992,-0.00980633590370417,0,
00:00:09.996,0.00134782353416085,0,
00:00:10,0.0134383020922542,0,
00:00:10.004,-0.00172047212254256,0,
00:00:10.008,-0.00724676344543695,0,
00:00:10.012,-0.00133830995764583,0,
00:00:10.016,0.00126252684276551,0,
00:00:10.02,0.00375898904167116,0,
00:00:10.024,-0.00302141788415611,0,
00:00:10.028,-0.00364510901272297,0,
00:00:10.032,0.00502467481419444,0,
00:00:10.036,0.00791962444782257,0,
00:00:10.04,-0.00586497224867344,0,
00:00:10.044,-0.00765807460993528,0,
00:00:10.048,0.00895335990935564,0,
00:00:10.052,-0.000172440908499993,0,
00:00:10.056,-0.00545683829113841,0,
00:00:10.06,-0.00284627336077392,0,
00:00:10.064,0.000830345263238996,0,
00:00:10.068,0.0047719394788146,0,
00:00:10.072,0.000509681005496532,0,
00:00:10.076,-0.000493027386255562,0,
00:00:10.08,-0.0045515620149672,0,
00:00:10.084,-0.00241758394986391,0,
00:00:10.088,0.0195841956883669,0,
00:00:10.092,-0.000443159660790116,0,
00:00:10.096,-0.0195879023522139,0,
00:00:10.1,-0.00290794856846333,0,
00:00:10.104,0.00643668603152037,0,
00:00:10.108,-0.000878869846928865,0,
00:00:10.112,0.00533080380409956,0,
00:00:10.116,0.00757862441241741,0,
00:00:10.12,-0.0103598926216364,0,
00:00:10.124,0.00439566979184747,0,
00:00:10.128,-0.00197563413530588,0,
00:00:10.132,-0.00879203528165817,0,
00:00:10.136,0.0153420399874449,0,
00:00:10.14,-0.00224797544069588,0,
00:00:10.144,-0.0207985620945692,0,
00:00:10.148,0.00375950615853071,0,
00:00:10.152,0.0235462728887796,0,
00:00:10.156,0.0149513529613614,0,
00:00:10.16,-0.0257425773888826,0,
00:00:10.164,-0.0208240654319525,0,
00:00:10.168,0.00712700886651874,0,
00:00:10.172,0.0100837685167789,0,
00:00:10.176,0.000852675118949264,0,
00:00:10.18,0.00809929985553026,0,
00:00:10.184,0.00951689667999744,0,
00:00:10.188,-0.00853816233575344,0,
00:00:10.192,-0.0184137802571058,0,
00:00:10.196,-0.00108288892079145,0,
00:00:10.2,0.0216864813119173,0,
00:00:10.204,0.00614842306822538,0,
00:00:10.208,-0.0216184500604868,0,
00:00:10.212,-0.0135868778452277,0,
00:00:10.216,0.0139403427019715,0,
00:00:10.22,0.0150968777015805,0,
00:00:10.224,-0.000459160713944584,0,
00:00:10.228,-0.00567024433985353,0,
00:00:10.232,-0.00494405720382929,0,
00:00:10.236,4.4539752707351E-05,0,
00:00:10.24,-0.00348215480335057,0,
00:00:10.244,0.00211805198341608,0,
00:00:10.248,0.00521053746342659,0,
00:00:10.252,-0.00218554167076945,0,
00:00:10.256,-0.00157886499073356,0,
00:00:10.26,0.00043762696441263,0,
00:00:10.264,0.00348396156914532,0,
00:00:10.268,0.00330716092139483,0,
00:00:10.272,0.000907984387595207,0,
00:00:10.276,-0.00986592750996351,0,
00:00:10.28,-0.00522228563204408,0,
00:00:10.284,0.00567279569804668,0,
00:00:10.288,0.000944716390222311,0,
00:00:10.292,0.00323056522756815,0,
00:00:10.296,-0.00245087454095483,0,
00:00:10.3,0.00770383793860674,0,
00:00:10.304,0.00401579262688756,0,
00:00:10.308,-0.0145332952961326,0,
00:00:10.312,-0.00798205658793449,0,
00:00:10.316,0.0063171423971653,0,
00:00:10.32,0.0136652262881398,0,
00:00:10.324,-0.00250522652640939,0,
00:00:10.328,-0.00977578572928905,0,
00:00:10.332,0.0027529145590961,0,
00:00:10.336,0.00327808340080082,0,
00:00:10.34,-0.00359876570291817,0,
00:00:10.344,-0.00166482804343104,0,
00:00:10.348,0.00542032811790705,0,
00:00:10.352,0.00469441106542945,0,
00:00:10.356,-0.00949893519282341,0,
00:00:10.36,-0.00288556353189051,0,
00:00:10.364,0.00831623189151287,0,
00:00:10.368,0.00184432801324874,0,
00:00:10.372,-0.00839420035481453,0,
00:00:10.376,0.000825891562271863,0,
00:00:10.38,-0.00118196103721857,0,
00:00:10.384,0.00170162075664848,0,
00:00:10.388,0.0115656359121203,0,
00:00:10.392,0.00499294279143214,0,
00:00:10.396,-0.00751106627285481,0,
00:00:10.4,-0.0157562177628279,0,
00:00:10.404,-0.00567857408896089,0,
00:00:10.408,0.00462583918124437,0,
00:00:10.412,0.00859503075480461,0,
00:00:10.416,0.00671785976737738,0,
00:00:10.42,0.00852516666054726,0,
00:00:10.424,-0.00747600756585598,0,
00:00:10.428,-0.00405724393203855,0,
00:00:10.432,-0.00121049524750561,0,
00:00:10.436,-0.00820646621286869,0,
00:00:10.44,0.00191130361054093,0,
00:00:10.444,-0.00214102142490447,0,
00:00:10.448,0.00659026112407446,0,
00:00:10.452,0.00548841571435332,0,
00:00:10.456,0.00340503151528537,0,
00:00:10.46,-0.0101499008014798,0,
00:00:10.464,0.0033493407536298,0,
00:00:10.468,0.00258687091991305,0,
00:00:10.472,-0.0113356811925769,0,
00:00:10.476,0.00918526947498322,0,
00:00:10.48,0.0142908459529281,0,
00:00:10.484,-0.0196877140551806,0,
00:00:10.488,-0.00607477966696024,0,
00:00:10.492,0.000576731341425329,0,
00:00:10.496,0.00338665070012212,0,
00:00:10.5,0.00786588434129953,0,
00:00:10.504,0.0111261438578367,0,
00:00:10.508,-0.00157731003127992,0,
00:00:10.512,-0.024241641163826,0,
00:00:10.516,0.00658552441745996,0,
00:00:10.52,0.0346806198358536,0,
00:00:10.524,-0.0200470685958862,0,
00:00:10.528,-0.0301686935126781,0,
00:00:10.532,-0.000682456535287201,0,
00:00:10.536,0.0193834714591503,0,
00:00:10.54,0.00754188420251012,0,
00:00:10.544,-0.00228233053348958,0,
00:00:10.548,0.00706952204927802,0,
00:00:10.552,0.00335136149078608,0,
00:00:10.556,-0.00893454160541296,0,
00:00:10.56,-0.0103388233110309,0,
00:00:10.564,-0.00303116487339139,0,
00:00:10.568,0.0054008224979043,0,
00:00:10.572,0.00558121176436543,0,
00:00:10.576,0.00462664710357785,0,
00:00:10.58,-0.000328789028571919,0,
00:00:10.584,-0.0117663433775306,0,
00:00:10.588,-0.00192940526176244,0,
00:00:10.592,0.0106250625103712,0,
00:00:10.596,0.0120031544938684,0,
00:00:10.6,-0.00532103190198541,0,
00:00:10.604,-0.022363493219018,0,
00:00:10.608,0.00312026310712099,0,
00:00:10.612,0.00654806429520249,0,
00:00:10.616,0.00539920991286635,0,
00:00:10.62,0.00853740330785513,0,
00:00:10.624,-0.00850142352283001,0,
00:00:10.628,-0.0110940188169479,0,
00:00:10.632,0.00512924278154969,0,
00:00:10.636,0.00448143621906638,0,
00:00:10.64,0.0108538744971156,0,
00:00:10.644,-0.0116833299398422,0,
00:00:10.648,-0.00580329401418567,0,
00:00:10.652,0.0175331402570009,0,
00:00:10.656,-0.00755890924483538,0,
00:00:10.66,-0.0134141417220235,0,
00:00:10.664,0.000927242916077375,0,
00:00:10.668,0.00385170592926443,0,
00:00:10.672,0.000833192898426205,0,
00:00:10.676,0.0157866068184376,0,
00:00:10.68,0.00463335495442152,0,
00:00:10.684,-0.013212539255619,0,
00:00:10.688,-0.0129768904298544,0,
00:00:10.692,-0.00692793913185596,0,
00:00:10.696,0.00706447148695588,0,
00:00:10.7,0.0167410261929035,0,
00:00:10.704,0.00719020236283541,0,
00:00:10.708,0.00486525194719434,0,
00:00:10.712,-0.0201691798865795,0,
00:00:10.716,-0.0157170686870813,0,
00:00:10.72,0.00781250093132257,0,
00:00:10.724,0.00361936655826867,0,
00:00:10.728,-0.00208637258037925,0,
00:00:10.732,0.0159246567636728,0,
00:00:10.736,0.00920489989221096,0,
00:00:10.74,-0.0105078155174851,0,
00:00:10.744,-0.0195154491811991,0,
00:00:10.748,0.00316513027064502,0,
00:00:10.752,0.0143108488991857,0,
00:00:10.756,-0.000780111993663013,0,
00:00:10.76,-0.00630292249843478,0,
00:00:10.764,-0.00276926159858704,0,
00:00:10.768,0.00344123807735741,0,
00:00:10.772,0.00524468813091516,0,
00:00:10.776,-0.00108319777064025,0,
00:00:10.78,-0.000518068263772875,0,
00:00:10.784,-0.00371880084276199,0,
00:00:10.788,-0.00820156466215849,0,
00:00:10.792,-0.00191041070502251,0,
00:00:10.796,0.0208054110407829,0,
00:00:10.8,0.0152993695810437,0,
00:00:10.804,-0.0177736505866051,0,
00:00:10.808,-0.0189941488206387,0,
00:00:10.812,-0.0156231159344316,0,
00:00:10.816,0.0202718712389469,0,
00:00:10.82,0.0245654191821814,0,
00:00:10.824,-0.00919442996382713,0,
00:00:10.828,0.00158366211690009,0,
00:00:10.832,-0.0110132498666644,0,
00:00:10.836,-0.00476843537762761,0,
00:00:10.84,-0.00363998347893357,0,
00:00:10.844,0.00910680741071701,0,
00:00:10.848,0.0106229465454817,0,
00:00:10.852,-0.00553607475012541,0,
00:00:10.856,-0.0108457338064909,0,
00:00:10.86,-0.000755896093323827,0,
00:00:10.864,0.0085451016202569,0,
00:00:10.868,0.00283567933365703,0,
00:00:10.872,-0.00286558386869729,0,
00:00:10.876,-0.0022312153596431,0,
00:00:10.88,0.00595246581360698,0,
00:00:10.884,-0.000843590183649212,0,
00:00:10.888,-0.00990806333720684,0,
00:00:10.892,-0.00756331952288747,0,
00:00:10.896,0.0137666603550315,0,
00:00:10.9,0.0158061720430851,0,
00:00:10.904,-0.0121215572580695,0,
00:00:10.908,-0.0110370917245746,0,
00:00:10.912,0.00819578673690557,0,
00:00:10.916,0.000641047256067395,0,
00:00:10.92,-0.010442553088069,0,
00:00:10.924,0.00397695833817124,0,
00:00:10.928,0.00811966136097908,0,
00:00:10.932,0.00935560464859009,0,
00:00:10.936,-0.00583434896543622,0,
00:00:10.94,-0.0192010514438152,0,
00:00:10.944,-0.00157692190259695,0,
00:00:10.948,0.00557928439229727,0,
00:00:10.952,0.0125322099775076,0,
00:00:10.956,0.0125380726531148,0,
00:00:10.96,-0.00735607510432601,0,
00:00:10.964,-0.0145591124892235,0,
00:00:10.968,-0.00188711984083056,0,
00:00:10.972,0.00101202912628651,0,
00:00:10.976,-0.00902583450078964,0,
00:00:10.98,0.0319826826453209,0,
00:00:10.984,0.0126006510108709,0,
00:00:10.988,-0.036138016730547,0,
00:00:10.992,-0.0149735175073147,0,
00:00:10.996,0.00832208059728146,0,
00:00:11,0.0105382641777396,0,
00:00:11.004,0.0221354197710752,0,
00:00:11.008,-0.0112510491162539,0,
00:00:11.012,-0.0193015523254871,0,
00:00:11.016,0.00334411207586527,0,
00:00:11.02,0.00369616667740047,0,
00:00:11.024,0.0127006703987718,0,
00:00:11.028,-0.000542706984560937,0,
00:00:11.032,-0.00752145890146494,0,
00:00:11.036,0.00542233046144247,0,
00:00:11.04,-0.0082737784832716,0,
00:00:11.044,-0.00576322479173541,0,
00:00:11.048,-0.00793999433517456,0,
00:00:11.052,0.00376886781305075,0,
00:00:11.056,0.0168482381850481,0,
00:00:11.06,0.0200409591197968,0,
00:00:11.064,0.00571229122579098,0,
00:00:11.068,-0.022902574390173,0,
00:00:11.072,-0.035668957978487,0,
00:00:11.076,-0.00414260104298592,0,
00:00:11.08,0.0136274425312877,0,
00:00:11.084,0.0231058578938246,0,
00:00:11.088,0.0278382319957018,0,
00:00:11.092,-0.0158397853374481,0,
00:00:11.096,-0.0238423421978951,0,
00:00:11.1,0.00114988966379315,0,
00:00:11.104,0.00945067312568426,0,
00:00:11.108,-0.00763166788965464,0,
00:00:11.112,6.14300224697217E-05,0,
00:00:11.116,-0.00140868255402893,0,
00:00:11.12,0.0146948872134089,0,
00:00:11.124,0.00468751462176442,0,
00:00:11.128,-0.0227248128503561,0,
00:00:11.132,-0.0123627260327339,0,
00:00:11.136,0.0224147159606218,0,
00:00:11.14,0.00877002719789743,0,
00:00:11.144,0.00321318302303553,0,
00:00:11.148,-0.00701077887788415,0,
00:00:11.152,-0.0122168445959687,0,
00:00:11.156,-0.000374392431695014,0,
00:00:11.16,0.00129481905605644,0,
00:00:11.164,-0.00529391318559647,0,
00:00:11.168,0.000541658198926598,0,
00:00:11.172,0.0264526642858982,0,
00:00:11.176,0.0177385155111551,0,
00:00:11.18,-0.0320215336978436,0,
00:00:11.184,-0.0215909369289875,0,
00:00:11.188,0.000236694919294678,0,
00:00:11.192,0.017011534422636,0,
00:00:11.196,0.000975605973508209,0,
00:00:11.2,0.0131349544972181,0,
00:00:11.204,-0.00727910362184048,0,
00:00:11.208,-0.00529073039069772,0,
00:00:11.212,0.00441477075219154,0,
00:00:11.216,0.000983603182248771,0,
00:00:11.22,-0.00099429558031261,0,
00:00:11.224,-0.0121519966050982,0,
00:00:11.228,-0.0104178600013256,0,
00:00:11.232,0.0125886639580131,0,
00:00:11.236,0.0106873828917742,0,
00:00:11.24,0.00045831419993192,0,
00:00:11.244,0.0173860043287277,0,
00:00:11.248,-0.0124964378774166,0,
00:00:11.252,-0.0213036183267832,0,
00:00:11.256,-0.0174582079052925,0,
00:00:11.26,0.0266965385526419,0,
00:00:11.264,0.0427551530301571,0,
00:00:11.268,-0.024339085444808,0,
00:00:11.272,-0.0369138084352016,0,
00:00:11.276,-0.0153792137280107,0,
00:00:11.28,0.0076591563411057,0,
00:00:11.284,0.0515488237142563,0,
00:00:11.288,0.0386461913585663,0,
00:00:11.292,-0.0430495031177998,0,
00:00:11.296,-0.0494585782289505,0,
00:00:11.3,-0.0047997385263443,0,
00:00:11.304,0.0196541491895914,0,
00:00:11.308,0.0181457493454218,0,
00:00:11.312,0.0099555030465126,0,
00:00:11.316,0.00713400961831212,0,
00:00:11.32,-0.0128705473616719,0,
00:00:11.324,-0.0174969024956226,0,
00:00:11.328,0.0170445684343576,0,
00:00:11.332,-0.0144468061625957,0,
00:00:11.336,0.00797473359853029,0,
00:00:11.34,0.0232954267412424,0,
00:00:11.344,-0.0261848755180836,0,
00:00:11.348,-0.00536883948370814,0,
00:00:11.352,-0.00371525576338172,0,
00:00:11.356,0.0098589863628149,0,
00:00:11.36,0.0034514726139605,0,
00:00:11.364,-0.000833474274259061,0,
00:00:11.368,0.00221491605043411,0,
00:00:11.372,-0.00498024374246597,0,
00:00:11.376,0.00329447630792856,0,
00:00:11.38,0.0156879425048828,0,
00:00:11.384,-0.0134092783555388,0,
00:00:11.388,-0.00953641906380653,0,
00:00:11.392,0.000397481984691694,0,
00:00:11.396,-0.00663419626653194,0,
00:00:11.4,0.0277254767715931,0,
00:00:11.404,-0.00622559431940317,0,
00:00:11.408,-0.027544466778636,0,
00:00:11.412,0.0212027598172426,0,
00:00:11.416,0.0150640532374382,0,
00:00:11.42,-0.00609233463183045,0,
00:00:11.424,-0.0200073029845953,0,
00:00:11.428,-0.00623690197244287,0,
00:00:11.432,0.0152472155168653,0,
00:00:11.436,-0.00742117408663034,0,
00:00:11.44,-0.00401342799887061,0,
00:00:11.444,0.0202742200344801,0,
00:00:11.448,0.0182735193520784,0,
00:00:11.452,-0.0228302255272865,0,
00:00:11.456,-0.00798331666737795,0,
00:00:11.46,0.00203534914180636,0,
00:00:11.464,-0.0242303758859634,0,
00:00:11.468,0.00980273261666298,0,
00:00:11.472,0.0299867819994688,0,
00:00:11.476,0.00753716751933098,0,
00:00:11.48,-0.0143989473581314,0,
00:00:11.484,-0.00874987244606018,0,
00:00:11.488,-0.00813673716038466,0,
00:00:11.492,-0.00450755609199405,0,
00:00:11.496,0.00910580530762672,0,
00:00:11.5,0.0113610187545419,0,
00:00:11.504,0.0102728120982647,0,
00:00:11.508,-0.00876972079277039,0,
00:00:11.512,-0.0125876748934388,0,
00:00:11.516,-0.00724231125786901,0,
00:00:11.52,0.0125888539478183,0,
00:00:11.524,0.00759785389527678,0,
00:00:11.528,-0.0199348069727421,0,
00:00:11.532,0.0161733385175467,0,
00:00:11.536,0.00355566572397947,0,
00:00:11.54,-0.0141933392733335,0,
00:00:11.544,-0.00166062277276069,0,
00:00:11.548,-0.00151750294025987,0,
00:00:11.552,0.0174373369663954,0,
00:00:11.556,0.0100222015753388,0,
00:00:11.56,-0.0104793142527342,0,
00:00:11.564,-0.0157021284103394,0,
00:00:11.568,-0.00939367804676294,0,
00:00:11.572,0.0188408475369215,0,
00:00:11.576,0.00762454979121685,0,
00:00:11.58,-0.00153145659714937,0,
00:00:11.584,-0.0240345969796181,0,
00:00:11.588,-0.00348713644780219,0,
00:00:11.592,0.0536032877862453,0,
00:00:11.596,0.0104365395382047,0,
00:00:11.6,-0.0540776215493679,0,
00:00:11.604,-0.0211686920374632,0,
00:00:11.608,-0.000776845903601497,0,
00:00:11.612,0.0269226022064686,0,
00:00:11.616,0.0118483956903219,0,
00:00:11.62,0.00800090283155441,0,
00:00:11.624,-0.000871817930601537,0,
00:00:11.628,-0.00872052554041147,0,
00:00:11.632,-0.00325423688627779,0,
00:00:11.636,-0.00687079364433885,0,
00:00:11.64,-0.00441007968038321,0,
00:00:11.644,0.012601925060153,0,
00:00:11.648,0.00407931860536337,0,
00:00:11.652,-0.01117252279073,0,
00:00:11.656,-0.00957909785211086,0,
00:00:11.66,0.0066395690664649,0,
00:00:11.664,0.0178125500679016,0,
00:00:11.668,0.0120072709396482,0,
00:00:11.672,-0.010057938285172,0,
00:00:11.676,-0.0296545047312975,0,
00:00:11.68,-0.0164881516247988,0,
00:00:11.684,0.0300741568207741,0,
00:00:11.688,0.00989534053951502,0,
00:00:11.692,0.0285356510430574,0,
00:00:11.696,-0.00879849586635828,0,
00:00:11.7,-0.0481150075793266,0,
00:00:11.704,-0.011510469019413,0,
00:00:11.708,0.014957838691771,0,
00:00:11.712,0.0236539840698242,0,
00:00:11.716,0.00785423628985882,0,
00:00:11.72,0.00442434614524245,0,
00:00:11.724,-0.00962264556437731,0,
00:00:11.728,-0.0144500816240907,0,
00:00:11.732,-0.00322175119072199,0,
00:00:11.736,0.00567545229569077,0,
00:00:11.74,0.00959591753780842,0,
00:00:11.744,-0.00386944715864956,0,
00:00:11.748,2.29626348300371E-05,0,
00:00:11.752,-0.00267162779346108,0,
00:00:11.756,-0.00565448962152004,0,
00:00:11.76,9.27761866478249E-05,0,
00:00:11.764,0.012662548571825,0,
00:00:11.768,0.00508829113095999,0,
00:00:11.772,-0.00793013256043196,0,
00:00:11.776,-0.0115685593336821,0,
00:00:11.78,-0.000550163618754596,0,
00:00:11.784,0.00707763154059649,0,
00:00:11.788,0.00750361056998372,0,
00:00:11.792,0.00550354411825538,0,
00:00:11.796,-0.0135425822809339,0,
00:00:11.8,0.000274709338555112,0,
00:00:11.804,0.00183822214603424,0,
00:00:11.808,-0.0184404216706753,0,
00:00:11.812,0.0148096419870853,0,
00:00:11.816,0.0138069279491901,0,
00:00:11.82,0.000865732494276017,0,
00:00:11.824,-0.0075643565505743,0,
00:00:11.828,0.00214256509207189,0,
00:00:11.832,-0.011880898848176,0,
00:00:11.836,0.00304846442304552,0,
00:00:11.84,-0.000337662233505398,0,
00:00:11.844,-0.00135404954198748,0,
00:00:11.848,0.00179799890611321,0,
00:00:11.852,0.00758703704923391,0,
00:00:11.856,0.00498738186433911,0,
00:00:11.86,-0.00424822047352791,0,
00:00:11.864,-0.0184154231101274,0,
00:00:11.868,0.0103695513680577,0,
00:00:11.872,0.00758610293269157,0,
00:00:11.876,-0.00287825334817171,0,
00:00:11.88,-0.00517770787701011,0,
00:00:11.884,0.0117200165987015,0,
00:00:11.888,-0.00499581219628453,0,
00:00:11.892,-0.00643047224730253,0,
00:00:11.896,-0.00449781725183129,0,
00:00:11.9,0.00548114208504558,0,
00:00:11.904,0.00475905323401093,0,
00:00:11.908,-0.00301917153410614,0,
00:00:11.912,0.000310228060698137,0,
00:00:11.916,0.00297071039676666,0,
00:00:11.92,-0.00162674149032682,0,
00:00:11.924,-0.00401176000013947,0,
00:00:11.928,0.00121355173178017,0,
00:00:11.932,0.00405906327068806,0,
00:00:11.936,0.00107893126551062,0,
00:00:11.94,-0.00378804444335401,0,
00:00:11.944,-0.00465461984276772,0,
00:00:11.948,-0.00017225492047146,0,
00:00:11.952,0.00718975439667702,0,
00:00:11.956,-0.000553114747162908,0,
00:00:11.96,0.00270939990878105,0,
00:00:11.964,-0.00231358548626304,0,
00:00:11.968,-0.00280568213202059,0,
00:00:11.972,0.000706760678440332,0,
00:00:11.976,-0.00385494716465473,0,
00:00:11.98,0.00136590003967285,0,
00:00:11.984,0.00459300214424729,0,
00:00:11.988,-0.000368304696166888,0,
00:00:11.992,-0.00348584214225411,0,
00:00:11.996,-0.000972377427387983,0,
00:00:12,0.00768693536520004,0,
00:00:12.004,0.000327367713907734,0,
00:00:12.008,-0.00963735952973366,0,
00:00:12.012,-0.00174677080940455,0,
00:00:12.016,0.00511267920956016,0,
00:00:12.02,0.00610620062798262,0,
00:00:12.024,-0.00323357782326639,0,
00:00:12.028,-0.00118489738088101,0,
00:00:12.032,-0.000670205452479422,0,
00:00:12.036,0.00162689201533794,0,
00:00:12.04,-0.00216175895184278,0,
00:00:12.044,-0.00571711082011461,0,
00:00:12.048,0.00401069410145283,0,
00:00:12.052,0.00853638257831335,0,
00:00:12.056,-0.00239270995371044,0,
00:00:12.06,-0.00635354267433286,0,
00:00:12.064,-0.00245662964880466,0,
00:00:12.068,0.00367348757572472,0,
00:00:12.072,0.00324158696457744,0,
00:00:12.076,0.00294030690565705,0,
00:00:12.08,-0.00712852412834764,0,
00:00:12.084,0.00486875139176846,0,
00:00:12.088,-0.00200904021039605,0,
00:00:12.092,-0.00451686978340149,0,
00:00:12.096,-0.000803916831500828,0,
00:00:12.1,0.00653507327660918,0,
00:00:12.104,0.00121852639131248,0,
00:00:12.108,-0.00334707391448319,0,
00:00:12.112,-0.00180545053444803,0,
00:00:12.116,0.00463497778400779,0,
00:00:12.12,0.00173705792985857,0,
00:00:12.124,-0.00595036754384637,0,
00:00:12.128,-0.00529631646350026,0,
00:00:12.132,0.0050107198767364,0,
00:00:12.136,0.00890673231333494,0,
00:00:12.14,-0.00264778872951865,0,
00:00:12.144,-0.00683109881356359,0,
00:00:12.148,-0.000731181120499969,0,
00:00:12.152,0.00161175255198032,0,
00:00:12.156,0.00587926199659705,0,
00:00:12.16,-0.00720427324995399,0,
00:00:12.164,0.000681203615386039,0,
00:00:12.168,0.00659735547378659,0,
00:00:12.172,-0.0045306384563446,0,
00:00:12.176,-0.00334354769438505,0,
00:00:12.18,0.000340552243869752,0,
00:00:12.184,0.00659354729577899,0,
00:00:12.188,0.00255631702020764,0,
00:00:12.192,-0.00620081182569265,0,
00:00:12.196,-0.00399256963282824,0,
00:00:12.2,0.00437412969768047,0,
00:00:12.204,0.000746121571864933,0,
00:00:12.208,0.00154362339526415,0,
00:00:12.212,-0.00671868724748492,0,
00:00:12.216,0.00208427757024765,0,
00:00:12.22,0.00737444963306189,0,
00:00:12.224,-0.00457214191555977,0,
00:00:12.228,-0.00382592622190714,0,
00:00:12.232,0.00192794378381222,0,
00:00:12.236,0.00437144702300429,0,
00:00:12.24,-0.00113946374040097,0,
00:00:12.244,-0.00629726005718112,0,
00:00:12.248,0.00274479389190674,0,
00:00:12.252,0.00745030958205462,0,
00:00:12.256,-0.000798668537754565,0,
00:00:12.26,-0.010305218398571,0,
00:00:12.264,-0.0017155185341835,0,
00:00:12.268,0.0117841940373182,0,
00:00:12.272,-0.00349332531914115,0,
00:00:12.276,-0.00393560249358416,0,
00:00:12.28,-0.000484505959320813,0,
00:00:12.284,0.00819834880530834,0,
00:00:12.288,0.000535983708687127,0,
00:00:12.292,-0.0076352097094059,0,
00:00:12.296,-0.00392123684287071,0,
00:00:12.3,0.00329420948401093,0,
00:00:12.304,0.00584946805611253,0,
00:00:12.308,-0.0023752695415169,0,
00:00:12.312,-0.00216618506237864,0,
00:00:12.316,0.00408060941845179,0,
00:00:12.32,0.00141646107658744,0,
00:00:12.324,-0.00807204935699701,0,
00:00:12.328,-0.00113502761814743,0,
00:00:12.332,0.0089614000171423,0,
00:00:12.336,0.00148986978456378,0,
00:00:12.34,-0.00705095566809177,0,
00:00:12.344,-0.00587438372895122,0,
00:00:12.348,0.00509054120630026,0,
00:00:12.352,0.00930631905794144,0,
00:00:12.356,-0.00228366674855351,0,
00:00:12.36,-0.00875839218497276,0,
00:00:12.364,0.00117980944924057,0,
00:00:12.368,0.00515660224482417,0,
00:00:12.372,0.00183760072104633,0,
00:00:12.376,-0.00365678337402642,0,
00:00:12.38,-0.0049198498018086,0,
00:00:12.384,0.0036433432251215,0,
00:00:12.388,0.000966444902587682,0,
00:00:12.392,-0.00187121634371579,0,
00:00:12.396,0.00203713215887547,0,
00:00:12.4,0.00374409859068692,0,
00:00:12.404,0.00025027513038367,0,
00:00:12.408,-0.00661860825493932,0,
00:00:12.412,-0.00305407634004951,0,
00:00:12.416,0.00356112373992801,0,
00:00:12.42,0.00563214207068086,0,
00:00:12.424,0.00138415629044175,0,
00:00:12.428,-0.00642515160143375,0,
00:00:12.432,-0.00139378581661731,0,
00:00:12.436,0.00309276371262968,0,
00:00:12.44,-0.000458865863038227,0,
00:00:12.444,-0.00480485241860151,0,
00:00:12.448,0.00398523407056928,0,
00:00:12.452,0.00794342998415232,0,
00:00:12.456,-0.00514664966613054,0,
00:00:12.46,-0.00481531536206603,0,
00:00:12.464,0.00323005788959563,0,
00:00:12.468,0.00210915226489306,0,
00:00:12.472,-0.00264289882034063,0,
00:00:12.476,-0.00406111683696508,0,
00:00:12.48,-0.000150389125337824,0,
00:00:12.484,0.00897756684571505,0,
00:00:12.488,0.00130656559485942,0,
00:00:12.492,-0.00721395155414939,0,
00:00:12.496,-0.00391188589856029,0,
00:00:12.5,0.00511360308155417,0,
00:00:12.504,0.00148410047404468,0,
00:00:12.508,-0.000185895085451193,0,
00:00:12.512,-0.0048253140412271,0,
00:00:12.516,0.00547654647380114,0,
00:00:12.52,0.00523398630321026,0,
00:00:12.524,-0.00519217364490032,0,
00:00:12.528,-0.00912769511342049,0,
00:00:12.532,0.0046187718398869,0,
00:00:12.536,0.00491430843248963,0,
00:00:12.54,-0.000746948353480548,0,
00:00:12.544,-0.00576529512181878,0,
00:00:12.548,0.00318196509033442,0,
00:00:12.552,0.00760167883709073,0,
00:00:12.556,-0.00300501589663327,0,
00:00:12.56,-0.00652834912762046,0,
00:00:12.564,-0.0023091877810657,0,
00:00:12.568,0.00809301249682903,0,
00:00:12.572,-0.000487862882437184,0,
00:00:12.576,-0.00439739506691694,0,
00:00:12.58,0.00060308922547847,0,
00:00:12.584,0.00165966793429106,0,
00:00:12.588,0.00306399841792881,0,
00:00:12.592,-0.00403266027569771,0,
00:00:12.596,-0.0043814149685204,0,
00:00:12.6,0.00685861660167575,0,
00:00:12.604,0.0061053205281496,0,
00:00:12.608,-0.00717472610995173,0,
00:00:12.612,-0.00546750193461776,0,
00:00:12.616,0.00173704512417316,0,
00:00:12.62,0.00721037574112415,0,
00:00:12.624,-0.00421746680513024,0,
00:00:12.628,-0.00115788739640266,0,
00:00:12.632,0.000429911335231736,0,
00:00:12.636,0.00291538634337485,0,
00:00:12.64,-0.00347368023358285,0,
00:00:12.644,-0.00161723524797708,0,
00:00:12.648,0.0032337624579668,0,
00:00:12.652,0.00442499713972211,0,
00:00:12.656,-0.00392706831917167,0,
00:00:12.66,-0.000996220391243696,0,
00:00:12.664,-7.44832068448886E-05,0,
00:00:12.668,0.00217843102291226,0,
00:00:12.672,-0.00189023406710476,0,
00:00:12.676,-0.00365968537516892,0,
00:00:12.68,-0.000224995266762562,0,
00:00:12.684,0.00866518542170525,0,
00:00:12.688,-0.00105670152697712,0,
00:00:12.692,-0.00536341266706586,0,
00:00:12.696,-0.00223055435344577,0,
00:00:12.7,0.00749291758984327,0,
00:00:12.704,-0.0012069835793227,0,
00:00:12.708,-0.00485706515610218,0,
00:00:12.712,-0.00156970333773643,0,
00:00:12.716,0.00587501609697938,0,
00:00:12.72,0.000905085471458733,0,
00:00:12.724,-0.00125204573851079,0,
00:00:12.728,-0.0035796700976789,0,
00:00:12.732,0.00321109034121037,0,
00:00:12.736,0.00169283407740295,0,
00:00:12.74,-0.00300677469931543,0,
00:00:12.744,-0.00629304116591811,0,
00:00:12.748,0.0060035833157599,0,
00:00:12.752,0.0047063697129488,0,
00:00:12.756,-0.00179324357304722,0,
00:00:12.76,-0.00681527983397245,0,
00:00:12.764,0.00468896143138409,0,
00:00:12.768,0.00352804688736796,0,
00:00:12.772,-0.000278300751233473,0,
00:00:12.776,-0.00665326463058591,0,
00:00:12.78,-0.00266978470608592,0,
00:00:12.784,0.0061027854681015,0,
00:00:12.788,0.00394583260640502,0,
00:00:12.792,-0.00437023863196373,0,
00:00:12.796,-0.00278961146250367,0,
00:00:12.8,0.00461857626214623,0,
00:00:12.804,0.00235637510195374,0,
00:00:12.808,-0.00736264837905765,0,
00:00:12.812,0.00116578629240394,0,
00:00:12.816,0.00472927698865533,0,
00:00:12.82,0.00354495900683105,0,
00:00:12.824,-0.00994606222957373,0,
00:00:12.828,-0.0046736360527575,0,
00:00:12.832,0.00882024690508842,0,
00:00:12.836,0.00804728642106056,0,
00:00:12.84,-0.00625967932865024,0,
00:00:12.844,-0.00559647148475051,0,
00:00:12.848,0.00104870635550469,0,
00:00:12.852,0.00649817055091262,0,
00:00:12.856,-0.0046299765817821,0,
00:00:12.86,-0.00121274206321687,0,
00:00:12.864,-0.00146509543992579,0,
00:00:12.868,0.00513305421918631,0,
00:00:12.872,0.000419015414081514,0,
00:00:12.876,-0.00127921183593571,0,
00:00:12.88,-0.00333439582027495,0,
00:00:12.884,0.005556704942137,0,
00:00:12.888,-0.00221453374251723,0,
00:00:12.892,-0.00475633703172207,0,
00:00:12.896,-0.000877296843100339,0,
00:00:12.9,0.00657443329691887,0,
00:00:12.904,0.00334977195598185,0,
00:00:12.908,-0.00530715566128492,0,
00:00:12.912,-0.00555375125259161,0,
00:00:12.916,0.00638097757473588,0,
00:00:12.92,0.00417549163103104,0,
00:00:12.924,-0.0026944053824991,0,
00:00:12.928,-0.00540973292663693,0,
00:00:12.932,0.000459627131931484,0,
00:00:12.936,0.00409546494483948,0,
00:00:12.94,-0.000486954901134595,0,
00:00:12.944,-0.005392677616328,0,
00:00:12.948,0.00337336491793394,0,
00:00:12.952,0.00554293394088745,0,
00:00:12.956,0.000985778868198395,0,
00:00:12.96,-0.00899162515997887,0,
00:00:12.964,0.000265052251052111,0,
00:00:12.968,0.00676609482616186,0,
00:00:12.972,-0.00209686998277903,0,
00:00:12.976,-0.0049866046756506,0,
00:00:12.98,-0.00109338969923556,0,
00:00:12.984,0.00648870458826423,0,
00:00:12.988,0.00337649811990559,0,
00:00:12.992,-0.00730905449017882,0,
00:00:12.996,-0.00143915612716228,0,
00:00:13,0.0060738823376596,0,
00:00:13.004,0.00270147132687271,0,
00:00:13.008,-0.00581670179963112,0,
00:00:13.012,-0.00572113692760468,0,
00:00:13.016,0.00861101690679789,0,
00:00:13.02,0.0045869005843997,0,
00:00:13.024,-0.00809858366847038,0,
00:00:13.028,-0.00509153865277767,0,
00:00:13.032,0.00278988340869546,0,
00:00:13.036,0.00607586419209838,0,
00:00:13.04,0.000238446184084751,0,
00:00:13.044,-0.00577285466715693,0,
00:00:13.048,0.00250127259641886,0,
00:00:13.052,0.0068393312394619,0,
00:00:13.056,-0.00344858691096306,0,
00:00:13.06,-0.00656448258087039,0,
00:00:13.064,2.682297690626E-06,0,
00:00:13.068,0.00434538442641497,0,
00:00:13.072,6.23621672275476E-05,0,
00:00:13.076,-0.00285745062865317,0,
00:00:13.08,0.00158316420856863,0,
00:00:13.084,0.00383078912273049,0,
00:00:13.088,-0.00146443536505103,0,
00:00:13.092,-0.00428867340087891,0,
00:00:13.096,-0.00122305017430335,0,
00:00:13.1,0.00789481401443481,0,
00:00:13.104,-0.00134473782964051,0,
00:00:13.108,-0.00523265823721886,0,
00:00:13.112,-0.00190356175880879,0,
00:00:13.116,0.00364641798660159,0,
00:00:13.12,0.00705809192731977,0,
00:00:13.124,-0.00343744247220457,0,
00:00:13.128,-0.00863384827971458,0,
00:00:13.132,0.00406677136197686,0,
00:00:13.136,0.00608258694410324,0,
00:00:13.14,-0.00548496516421437,0,
00:00:13.144,-0.00358882173895836,0,
00:00:13.148,0.00282299076206982,0,
00:00:13.152,0.00522404536604881,0,
00:00:13.156,-0.000735769222956151,0,
00:00:13.16,-0.00637153908610344,0,
00:00:13.164,0.00239836913533509,0,
00:00:13.168,0.00500531634315848,0,
00:00:13.172,-0.00112865760456771,0,
00:00:13.176,-0.00466350838541985,0,
00:00:13.18,0.000278138875728473,0,
00:00:13.184,0.00346515164710581,0,
00:00:13.188,0.00100965355522931,0,
00:00:13.192,-0.00555795663967729,0,
00:00:13.196,-0.00226668827235699,0,
00:00:13.2,0.00592719204723835,0,
00:00:13.204,0.00145536533091217,0,
00:00:13.208,-0.0027497869450599,0,
00:00:13.212,-0.00130118941888213,0,
00:00:13.216,0.00483318790793419,0,
00:00:13.22,0.00165048334747553,0,
00:00:13.224,-0.00617686379700899,0,
00:00:13.228,-0.00343635259196162,0,
00:00:13.232,0.00499241892248392,0,
00:00:13.236,0.00320198899134994,0,
00:00:13.24,-0.00243561365641654,0,
00:00:13.244,-0.00652770744636655,0,
00:00:13.248,0.00541719468310475,0,
00:00:13.252,0.00418559182435274,0,
00:00:13.256,-0.00203882344067097,0,
00:00:13.26,-0.00471129594370723,0,
00:00:13.264,-0.00125810469035059,0,
00:00:13.268,0.00810524355620146,0,
00:00:13.272,-0.00110417231917381,0,
00:00:13.276,-0.00509922858327627,0,
00:00:13.28,-0.00190405058674514,0,
00:00:13.284,0.00771174672991037,0,
