Elapsed Time,Ch1,BioRadio Event,
00:00:00,1.70629119873047,0,
00:00:00.004,-1.62371504306793,0,
00:00:00.008,-1.3518351316452,0,
00:00:00.012,-0.145626068115234,0,
00:00:00.016,0.700497150421143,0,
00:00:00.02,0.842582762241364,0,
00:00:00.024,0.512298226356506,0,
00:00:00.028,0.0668812766671181,0,
00:00:00.032,-0.243667379021645,0,
00:00:00.036,-0.334493041038513,0,
00:00:00.04,-0.253595799207687,0,
00:00:00.044,-0.0945588052272797,0,
00:00:00.048,0.0437408573925495,0,
00:00:00.052,0.101075276732445,0,
00:00:00.056,0.0858878865838051,0,
00:00:00.06,0.0447526089847088,0,
00:00:00.064,0.00473367376253009,0,
00:00:00.068,-0.018835823982954,0,
00:00:00.072,-0.036049846559763,0,
00:00:00.076,-0.0247357748448849,0,
00:00:00.08,-0.00378534244373441,0,
00:00:00.084,0.0120775923132896,0,
00:00:00.088,0.00672537833452225,0,
00:00:00.092,0.000130434986203909,0,
00:00:00.096,0.00820782501250505,0,
00:00:00.1,0.00571399508044124,0,
00:00:00.104,-0.00627186149358749,0,
00:00:00.108,-0.00866312999278307,0,
00:00:00.112,-0.00280404067598283,0,
00:00:00.116,0.00870362762361765,0,
00:00:00.12,0.000434173707617447,0,
00:00:00.124,-0.00373940542340279,0,
00:00:00.128,0.000795650645159185,0,
00:00:00.132,0.0035590457264334,0,
00:00:00.136,0.000766100827604532,0,
00:00:00.14,-0.00802232697606087,0,
00:00:00.144,-0.000633459480013698,0,
00:00:00.148,0.0073812622576952,0,
00:00:00.152,0.00368122733198106,0,
00:00:00.156,-0.00341757433488965,0,
00:00:00.16,-0.00792176555842161,0,
00:00:00.164,0.00443058554083109,0,
00:00:00.168,0.00597652979195118,0,
00:00:00.172,-0.00374195259064436,0,
00:00:00.176,-0.00793533399701118,0,
00:00:00.18,0.0030331495217979,0,
00:00:00.184,0.00673452718183398,0,
00:00:00.188,0.000416600174503401,0,
00:00:00.192,-0.00398044660687447,0,
00:00:00.196,0.00217648106627166,0,
00:00:00.2,0.000849680625833571,0,
00:00:00.204,-0.00336166960187256,0,
00:00:00.208,-0.00414806324988604,0,
00:00:00.212,0.000148606632137671,0,
00:00:00.216,0.00935361813753843,0,
00:00:00.22,-0.000522981106769294,0,
00:00:00.224,-0.00518145645037293,0,
00:00:00.228,-0.0023513741325587,0,
00:00:00.232,0.00723725790157914,0,
00:00:00.236,-0.00143606250640005,0,
00:00:00.24,-0.00497393310070038,0,
00:00:00.244,-0.00157130975276232,0,
00:00:00.248,0.00594139657914639,0,
00:00:00.252,0.00513430032879114,0,
00:00:00.256,-0.00930330902338028,0,
00:00:00.26,-0.00289963581599295,0,
00:00:00.264,0.00820267759263515,0,
00:00:00.268,0.00173278280999511,0,
00:00:00.272,-0.00429875683039427,0,
00:00:00.276,-0.00727281719446182,0,
00:00:00.28,0.0057501308619976,0,
00:00:00.284,0.00705135753378272,0,
00:00:00.288,-0.00542258378118277,0,
00:00:00.292,-0.00410740170627832,0,
00:00:00.296,0.00218218029476702,0,
00:00:00.3,0.00478776637464762,0,
00:00:00.304,0.00121260283049196,0,
00:00:00.308,-0.00823741964995861,0,
00:00:00.312,0.000958184245973825,0,
00:00:00.316,0.00707373581826687,0,
00:00:00.32,-0.00218304898589849,0,
00:00:00.324,-0.00528672151267529,0,
00:00:00.328,-0.00139998586382717,0,
00:00:00.332,0.0083812652155757,0,
00:00:00.336,-0.000708701321855187,0,
00:00:00.34,-0.00483276089653373,0,
00:00:00.344,-0.00185193913057446,0,
00:00:00.348,0.00760080059990287,0,
00:00:00.352,0.000761834031436592,0,
00:00:00.356,-0.0070238197222352,0,
00:00:00.36,-0.00129653699696064,0,
00:00:00.364,0.00157264189328998,0,
00:00:00.368,0.00624063890427351,0,
00:00:00.372,-0.00473319692537189,0,
00:00:00.376,-0.00318191037513316,0,
00:00:00.38,0.00272400490939617,0,
00:00:00.384,0.00691502122208476,0,
00:00:00.388,-0.00517340237274766,0,
00:00:00.392,-0.00625233259052038,0,
00:00:00.396,0.00384872267022729,0,
00:00:00.4,0.00821336917579174,0,
00:00:00.404,-0.00277825514785945,0,
00:00:00.408,-0.00660462537780404,0,
00:00:00.412,-0.00249226414598525,0,
00:00:00.416,0.00795536302030087,0,
00:00:00.42,0.00155360251665115,0,
00:00:00.424,-0.00839846953749657,0,
00:00:00.428,0.00101845269091427,0,
00:00:00.432,0.00734350737184286,0,
00:00:00.436,0.000163414573762566,0,
00:00:00.44,-0.00921185594052076,0,
00:00:00.444,-0.00110407057218254,0,
00:00:00.448,0.00763821648433805,0,
00:00:00.452,0.00422296253964305,0,
00:00:00.456,-0.00506850797683001,0,
00:00:00.46,-0.00165936793200672,0,
00:00:00.464,0.00200713449157774,0,
00:00:00.468,0.000569937925320119,0,
00:00:00.472,-0.00316018494777381,0,
00:00:00.476,-0.00573404179885983,0,
00:00:00.48,0.00671112257987261,0,
00:00:00.484,0.00515396147966385,0,
00:00:00.488,-0.00172194908373058,0,
00:00:00.492,-0.00493783131241798,0,
00:00:00.496,-0.00171844766009599,0,
00:00:00.5,0.00769992917776108,0,
00:00:00.504,0.000770239450503141,0,
00:00:00.508,-0.00914667081087828,0,
00:00:00.512,0.000626868393737823,0,
00:00:00.516,0.00526433624327183,0,
00:00:00.52,0.00237073609605432,0,
00:00:00.524,-0.00729620922356844,0,
00:00:00.528,0.00133081478998065,0,
00:00:00.532,0.00487115606665611,0,
00:00:00.536,0.00150594965089113,0,
00:00:00.54,-0.00596057344228029,0,
00:00:00.544,-0.00304398080334067,0,
00:00:00.548,0.00735548231750727,0,
00:00:00.552,-0.00079504179302603,0,
00:00:00.556,-0.00431794254109263,0,
00:00:00.56,-0.00122449791524559,0,
00:00:00.564,0.00592960231006145,0,
00:00:00.568,0.00490025151520967,0,
00:00:00.572,-0.0095760328695178,0,
00:00:00.576,-0.00308211147785187,0,
00:00:00.58,0.00607383903115988,0,
00:00:00.584,0.00582871027290821,0,
00:00:00.588,-0.00662513775750995,0,
00:00:00.592,-0.00461740558966994,0,
00:00:00.596,0.00235306262038648,0,
00:00:00.6,0.00737297208979726,0,
00:00:00.604,-0.00235041789710522,0,
00:00:00.608,-0.00764174619689584,0,
00:00:00.612,0.00243782717734575,0,
00:00:00.616,0.00587925314903259,0,
00:00:00.62,0.0018833742942661,0,
00:00:00.624,-0.00820826645940542,0,
00:00:00.628,0.000602844171226025,0,
00:00:00.632,0.00459749484434724,0,
00:00:00.636,0.00163669511675835,0,
00:00:00.64,-0.00771400285884738,0,
00:00:00.644,-0.000767425633966923,0,
00:00:00.648,0.00915920455008745,0,
00:00:00.652,0.00146915658842772,0,
00:00:00.656,-0.00721721863374114,0,
00:00:00.66,-0.00399466324597597,0,
00:00:00.664,0.00505335908383131,0,
00:00:00.668,0.00356496870517731,0,
00:00:00.672,-0.00210417644120753,0,
00:00:00.676,-0.00639612274244428,0,
00:00:00.68,0.00535228056833148,0,
00:00:00.684,0.00402180338278413,0,
00:00:00.688,-0.00219545513391495,0,
00:00:00.692,-0.00479859532788396,0,
00:00:00.696,0.000807727279607207,0,
00:00:00.7,0.00616934336721897,0,
00:00:00.704,-0.00269482261501253,0,
00:00:00.708,-0.00523988949134946,0,
00:00:00.712,-0.00104929856024683,0,
00:00:00.716,0.0087320152670145,0,
00:00:00.72,0.00154369731899351,0,
00:00:00.724,-0.00889986101537943,0,
00:00:00.728,0.000427319813752547,0,
00:00:00.732,0.00487029040232301,0,
00:00:00.736,0.00202236394397914,0,
00:00:00.74,-0.00747269904240966,0,
00:00:00.744,-0.00074690073961392,0,
00:00:00.748,0.00694687897339463,0,
00:00:00.752,0.0053407778032124,0,
00:00:00.756,-0.00768237421289086,0,
00:00:00.76,-0.00550877815112472,0,
00:00:00.764,0.00405342318117619,0,
00:00:00.768,0.00343160587362945,0,
00:00:00.772,-0.00165914057288319,0,
00:00:00.776,-0.00582189811393619,0,
00:00:00.78,0.00366040272638202,0,
00:00:00.784,0.00816746614873409,0,
00:00:00.788,-0.00265141064301133,0,
00:00:00.792,-0.00854006130248308,0,
00:00:00.796,0.00160157843492925,0,
00:00:00.8,0.00755644217133522,0,
00:00:00.804,-0.00210725259967148,0,
00:00:00.808,-0.00547723332419991,0,
00:00:00.812,-0.00163686322048306,0,
00:00:00.816,0.00824267137795687,0,
00:00:00.82,0.00136041617952287,0,
00:00:00.824,-0.00880250614136457,0,
00:00:00.828,0.000658793724142015,0,
00:00:00.832,0.00508616445586085,0,
00:00:00.836,0.00213854294270277,0,
00:00:00.84,-0.00538823800161481,0,
00:00:00.844,-0.00277998927049339,0,
00:00:00.848,0.00523299537599087,0,
00:00:00.852,0.00511446921154857,0,
00:00:00.856,-0.00685459189116955,0,
00:00:00.86,-0.00654541235417128,0,
00:00:00.864,0.00875712092965841,0,
00:00:00.868,0.00319870607927442,0,
00:00:00.872,-0.00756796216592193,0,
00:00:00.876,0.00292655872181058,0,
00:00:00.88,0.00260094599798322,0,
00:00:00.884,-0.000177674301085062,0,
00:00:00.888,-0.00601948099210858,0,
00:00:00.892,-0.00412598485127091,0,
00:00:00.896,0.0063049946911633,0,
00:00:00.9,0.00960047263652086,0,
00:00:00.904,-0.00268569425679743,0,
00:00:00.908,-0.00732788443565369,0,
00:00:00.912,-0.00338238058611751,0,
00:00:00.916,0.00735391024500132,0,
00:00:00.92,-0.000692882691510022,0,
00:00:00.924,-0.00626629404723644,0,
00:00:00.928,0.00294280447997153,0,
00:00:00.932,0.00567978993058205,0,
00:00:00.936,0.00140267808455974,0,
00:00:00.94,-0.00653577921912074,0,
00:00:00.944,-0.00361158628948033,0,
00:00:00.948,0.00498914299532771,0,
00:00:00.952,0.00326982280239463,0,
00:00:00.956,-0.00445625744760036,0,
00:00:00.96,-0.00246808771044016,0,
00:00:00.964,0.00505331996828318,0,
00:00:00.968,0.00475221779197454,0,
00:00:00.972,-0.00714438175782561,0,
00:00:00.976,-0.00457770330831409,0,
00:00:00.98,0.00475859642028809,0,
00:00:00.984,0.00365968840196729,0,
00:00:00.988,-0.00183304864913225,0,
00:00:00.992,-0.00616905838251114,0,
00:00:00.996,0.00750674586743116,0,
00:00:01,0.00198912434279919,0,
00:00:01.004,-0.00603372696787119,0,
00:00:01.008,-0.00310973287560046,0,
00:00:01.012,0.00323496828787029,0,
00:00:01.016,0.00529521610587835,0,
00:00:01.02,-0.000901638704817742,0,
00:00:01.024,-0.0045073451474309,0,
00:00:01.028,-0.0017792119178921,0,
00:00:01.032,0.00740583939477801,0,
00:00:01.036,-0.00156722706742585,0,
00:00:01.04,-0.00519418623298407,0,
00:00:01.044,-0.00172433571424335,0,
00:00:01.048,0.00590877048671246,0,
00:00:01.052,0.00519424770027399,0,
00:00:01.056,-0.00713537400588393,0,
00:00:01.06,-0.00480197556316853,0,
00:00:01.064,0.0045158239081502,0,
00:00:01.068,0.00352429668419063,0,
00:00:01.072,-0.00391569500789046,0,
00:00:01.076,-0.00204308121465147,0,
00:00:01.08,0.00518973870202899,0,
00:00:01.084,0.00256255408748984,0,
00:00:01.088,-0.00331645086407661,0,
00:00:01.092,-0.00718338368460536,0,
00:00:01.096,0.00309434137307107,0,
00:00:01.1,0.00833320431411266,0,
00:00:01.104,-0.00211639376357198,0,
00:00:01.108,-0.00801301840692759,0,
00:00:01.112,0.00190000468865037,0,
00:00:01.116,0.00759383011609316,0,
00:00:01.12,-0.00223837583325803,0,
00:00:01.124,-0.00565058691427112,0,
00:00:01.128,0.00031527754617855,0,
00:00:01.132,0.0041500679217279,0,
00:00:01.136,0.0017180300783366,0,
00:00:01.14,-0.00520935282111168,0,
00:00:01.144,-0.00232627242803574,0,
00:00:01.148,0.00562715902924538,0,
00:00:01.152,0.0032057820353657,0,
00:00:01.156,-0.00493151042610407,0,
00:00:01.16,-0.00299368612468243,0,
00:00:01.164,0.00471787853166461,0,
00:00:01.168,0.00259393639862537,0,
00:00:01.172,-0.00506891030818224,0,
00:00:01.176,-0.002771818311885,0,
00:00:01.18,0.00299063441343606,0,
00:00:01.184,0.00692340638488531,0,
00:00:01.188,-0.00320644024759531,0,
00:00:01.192,-0.00831138156354427,0,
00:00:01.196,0.00220704590901732,0,
00:00:01.2,0.00602925941348076,0,
00:00:01.204,0.000128687781398185,0,
00:00:01.208,-0.00386811094358563,0,
00:00:01.212,0.000418034149333835,0,
00:00:01.216,0.00521150417625904,0,
00:00:01.22,-0.00351712061092258,0,
00:00:01.224,-0.00558758480474353,0,
00:00:01.228,-0.000945155741646886,0,
00:00:01.232,0.00906845182180405,0,
00:00:01.236,-0.000198507608729415,0,
00:00:01.24,-0.0046578380279243,0,
00:00:01.244,0.000120275210065302,0,
00:00:01.248,0.00332409027032554,0,
00:00:01.252,0.00089340953854844,0,
00:00:01.256,-0.00566053111106157,0,
00:00:01.26,-0.00442806957289577,0,
00:00:01.264,0.00784371048212051,0,
00:00:01.268,0.00722122332081199,0,
00:00:01.272,-0.00652539357542992,0,
00:00:01.276,-0.00541574554517865,0,
00:00:01.28,0.00139054004102945,0,
00:00:01.284,0.00676639331504703,0,
00:00:01.288,-0.002457958413288,0,
00:00:01.292,-0.00739283347502351,0,
00:00:01.296,0.00487367948517203,0,
00:00:01.3,0.00417878804728389,0,
00:00:01.304,-0.00172568846028298,0,
00:00:01.308,-0.00644446862861514,0,
00:00:01.312,0.00298431282863021,0,
00:00:01.316,0.00777874840423465,0,
00:00:01.32,-0.00268080527894199,0,
00:00:01.324,-0.00833135843276978,0,
00:00:01.328,0.00186810281593353,0,
00:00:01.332,0.00774619076400995,0,
00:00:01.336,3.34945252689067E-05,0,
00:00:01.34,-0.00748789589852095,0,
00:00:01.344,-0.00335758225992322,0,
00:00:01.348,0.00591962924227118,0,
00:00:01.352,0.00414332607761025,0,
00:00:01.356,-0.00613239593803883,0,
00:00:01.36,-0.000588344351854175,0,
00:00:01.364,0.00632446119561791,0,
00:00:01.368,0.00454321131110191,0,
00:00:01.372,-0.00822217762470245,0,
00:00:01.376,-0.0077292243950069,0,
00:00:01.38,0.00618452578783035,0,
00:00:01.384,0.0053418530151248,0,
00:00:01.388,-0.00126173859462142,0,
00:00:01.392,-0.00656627817079425,0,
00:00:01.396,0.00469349836930633,0,
00:00:01.4,0.00341092213056982,0,
00:00:01.404,-0.00247751455754042,0,
00:00:01.408,-0.00682008359581232,0,
00:00:01.412,0.00302252476103604,0,
00:00:01.416,0.0080616781488061,0,
00:00:01.42,-0.000290746305836365,0,
00:00:01.424,-0.010104650631547,0,
00:00:01.428,0.000277408107649535,0,
00:00:01.432,0.0054351044818759,0,
00:00:01.436,0.000678536598570645,0,
00:00:01.44,-0.00292118405923247,0,
00:00:01.444,-0.00094156403793022,0,
00:00:01.448,0.00534249609336257,0,
00:00:01.452,0.00199958053417504,0,
00:00:01.456,-0.00609585689380765,0,
00:00:01.46,-0.00356223294511437,0,
00:00:01.464,0.00479145022109151,0,
00:00:01.468,0.00303958426229656,0,
00:00:01.472,-0.00250730267725885,0,
00:00:01.476,-0.00651610968634486,0,
00:00:01.48,0.00547237880527973,0,
00:00:01.484,0.00631834333762527,0,
00:00:01.488,-0.00813212897628546,0,
00:00:01.492,-0.00239719240926206,0,
00:00:01.496,0.00391146028414369,0,
00:00:01.5,0.00730820326134562,0,
00:00:01.504,-0.00134191871620715,0,
00:00:01.508,-0.0107569983229041,0,
00:00:01.512,0.000170572471688502,0,
00:00:01.516,0.00569448573514819,0,
00:00:01.52,0.00311039690859616,0,
00:00:01.524,-0.00671830959618092,0,
00:00:01.528,-0.000526843883562833,0,
00:00:01.532,0.00882678758352995,0,
00:00:01.536,0.000930148467887193,0,
00:00:01.54,-0.00765195302665234,0,
00:00:01.544,-0.00418420927599072,0,
00:00:01.548,0.00716359214857221,0,
00:00:01.552,-0.000335632910719141,0,
00:00:01.556,-0.00161712965928018,0,
00:00:01.56,-0.00484141521155834,0,
00:00:01.564,0.00638581579551101,0,
00:00:01.568,0.00417017284780741,0,
00:00:01.572,-0.00471853604540229,0,
00:00:01.576,-0.00340883154422045,0,
00:00:01.58,0.00205414020456374,0,
00:00:01.584,0.00624492531642318,0,
00:00:01.588,-0.00549175823107362,0,
00:00:01.592,-0.0040887463837862,0,
00:00:01.596,0.00427928380668163,0,
00:00:01.6,0.00287383073009551,0,
00:00:01.604,-0.00239504384808242,0,
00:00:01.608,-0.00423650443553925,0,
00:00:01.612,-0.0005059958784841,0,
00:00:01.616,0.00866540800780058,0,
00:00:01.62,0.00115222530439496,0,
00:00:01.624,-0.00721031846478581,0,
00:00:01.628,-0.00381760043092072,0,
00:00:01.632,0.00729616824537516,0,
00:00:01.636,-0.000422970624640584,0,
00:00:01.64,-0.00596307357773185,0,
00:00:01.644,0.00307892914861441,0,
00:00:01.648,0.0056189545430243,0,
00:00:01.652,0.00122905953321606,0,
00:00:01.656,-0.00671279150992632,0,
00:00:01.66,-0.0037199342623353,0,
00:00:01.664,0.00496538681909442,0,
00:00:01.668,0.00330507569015026,0,
00:00:01.672,-0.00440175924450159,0,
00:00:01.676,-0.00242570182308555,0,
00:00:01.68,0.00299470010213554,0,
00:00:01.684,0.00672262441366911,0,
00:00:01.688,-0.00551802478730679,0,
00:00:01.692,-0.00441589765250683,0,
00:00:01.696,0.00183166330680251,0,
00:00:01.7,0.00460656406357884,0,
00:00:01.704,-0.000817586318589747,0,
00:00:01.708,-0.00399282854050398,0,
00:00:01.712,0.000841653847601265,0,
00:00:01.716,0.00575588690117002,0,
00:00:01.72,-0.00315520446747541,0,
00:00:01.724,-0.00757677434012294,0,
00:00:01.728,0.00298691098578274,0,
00:00:01.732,0.00646757148206234,0,
00:00:01.736,0.00223399884998798,0,
00:00:01.74,-0.006076755002141,0,
00:00:01.744,-0.00359185412526131,0,
00:00:01.748,0.00473086116835475,0,
00:00:01.752,0.00502988696098328,0,
00:00:01.756,-0.0066475966013968,0,
00:00:01.76,-0.00625160476192832,0,
00:00:01.764,0.00897765439003706,0,
00:00:01.768,0.00328241474926472,0,
00:00:01.772,-0.00552425999194384,0,
00:00:01.776,-0.00536211952567101,0,
00:00:01.78,0.00472843321040273,0,
00:00:01.784,0.00857960246503353,0,
00:00:01.788,-0.00290556531399488,0,
00:00:01.792,-0.00904461182653904,0,
00:00:01.796,0.00121799192856997,0,
00:00:01.8,0.00952262710779905,0,
00:00:01.804,-0.00396189698949456,0,
00:00:01.808,-0.00897970423102379,0,
00:00:01.812,0.00242082378827035,0,
00:00:01.816,0.00676470156759024,0,
00:00:01.82,0.000817987369373441,0,
00:00:01.824,-0.00355540635064244,0,
00:00:01.828,0.000336323369992897,0,
00:00:01.832,0.00283490540459752,0,
00:00:01.836,-0.00185359478928149,0,
00:00:01.84,-0.00413529202342033,0,
00:00:01.844,-0.000807150616310537,0,
00:00:01.848,0.00829088967293501,0,
00:00:01.852,-0.00112815981265157,0,
00:00:01.856,-0.00521328812465072,0,
00:00:01.86,-0.0020076350774616,0,
00:00:01.864,0.00559064326807857,0,
00:00:01.868,0.00499161053448915,0,
00:00:01.872,-0.00718368124216795,0,
00:00:01.876,-0.00473932456225157,0,
00:00:01.88,0.00254068919457495,0,
00:00:01.884,0.00765505712479353,0,
00:00:01.888,-0.00421578949317336,0,
00:00:01.892,-0.00559210311621428,0,
00:00:01.896,0.00404058862477541,0,
00:00:01.9,0.00804221164435148,0,
00:00:01.904,-0.00309173902496696,0,
00:00:01.908,-0.00894412398338318,0,
00:00:01.912,0.00143682258203626,0,
00:00:01.916,0.00763511657714844,0,
00:00:01.92,-0.00190082343760878,0,
00:00:01.924,-0.00527499010786414,0,
00:00:01.928,-0.00151953496970236,0,
00:00:01.932,0.00826167594641447,0,
00:00:01.936,-0.000761467439588159,0,
00:00:01.94,-0.00481567438691854,0,
00:00:01.944,-0.00179758400190622,0,
00:00:01.948,0.0055793528445065,0,
00:00:01.952,0.00276865717023611,0,
00:00:01.956,-0.00537703931331635,0,
00:00:01.96,-0.00320823793299496,0,
00:00:01.964,0.00476323114708066,0,
00:00:01.968,0.00279095629230142,0,
00:00:01.972,-0.00485807191580534,0,
00:00:01.976,-0.0026390680577606,0,
00:00:01.98,0.00509820412844419,0,
00:00:01.984,0.00490772910416126,0,
00:00:01.988,-0.00491358991712332,0,
00:00:01.992,-0.00854006595909595,0,
00:00:01.996,0.00302813993766904,0,
00:00:02,0.00913783628493547,0,
00:00:02.004,-0.00119747093413025,0,
00:00:02.008,-0.00748581113293767,0,
00:00:02.012,-0.000150011561345309,0,
00:00:02.016,0.00926397182047367,0,
00:00:02.02,0.00109836808405817,0,
00:00:02.024,-0.00979243777692318,0,
00:00:02.028,-0.00028302360442467,0,
00:00:02.032,0.00464066956192255,0,
00:00:02.036,0.00222056359052658,0,
00:00:02.04,-0.00500628165900707,0,
00:00:02.044,-0.00237321015447378,0,
00:00:02.048,0.00548559753224254,0,
00:00:02.052,0.00517075508832932,0,
00:00:02.056,-0.00901233032345772,0,
00:00:02.06,-0.00262177945114672,0,
00:00:02.064,0.00624868087470531,0,
00:00:02.068,0.00366868637502193,0,
00:00:02.072,-0.00485844817012548,0,
00:00:02.076,-0.00317137967795134,0,
00:00:02.08,0.00449967896565795,0,
00:00:02.084,0.00247046258300543,0,
00:00:02.088,-0.00506861228495836,0,
00:00:02.092,-0.00269112456589937,0,
00:00:02.096,0.00308749964460731,0,
00:00:02.1,0.00491391681134701,0,
00:00:02.104,-0.00121063552796841,0,
00:00:02.108,-0.00460852915421128,0,
00:00:02.112,0.000379483884898946,0,
00:00:02.116,0.00351937906816602,0,
00:00:02.12,-0.00108789023943245,0,
00:00:02.124,-0.00573081336915493,0,
00:00:02.128,0.00334732327610254,0,
00:00:02.132,0.00779380835592747,0,
00:00:02.136,-0.00284413807094097,0,
00:00:02.14,-0.00850360654294491,0,
00:00:02.144,-0.000295702426228672,0,
00:00:02.148,0.00972866453230381,0,
00:00:02.152,0.00173904467374086,0,
00:00:02.156,-0.00724013429135084,0,
00:00:02.16,-0.00415522791445255,0,
00:00:02.164,0.00490284897387028,0,
00:00:02.168,0.00349892163649201,0,
00:00:02.172,-0.00416065473109484,0,
00:00:02.176,-0.00228045997209847,0,
00:00:02.18,0.00508383801206946,0,
00:00:02.184,0.00259450380690396,0,
00:00:02.188,-0.00320943701080978,0,
00:00:02.192,-0.00707462430000305,0,
00:00:02.196,0.00315897050313652,0,
00:00:02.2,0.0083448039367795,0,
00:00:02.204,-0.00214066030457616,0,
00:00:02.208,-0.0101236226037145,0,
00:00:02.212,0.00592503231018782,0,
00:00:02.216,0.00517498329281807,0,
00:00:02.22,0.000351646012859419,0,
00:00:02.224,-0.0090691726654768,0,
00:00:02.228,-0.00142554356716573,0,
00:00:02.232,0.00922553427517414,0,
00:00:02.236,0.00192601478192955,0,
00:00:02.24,-0.00881582591682673,0,
00:00:02.244,0.000331003830069676,0,
00:00:02.248,0.00475237518548965,0,
00:00:02.252,0.00197362969629467,0,
00:00:02.256,-0.00744177913293242,0,
00:00:02.26,-0.000673384987749159,0,
00:00:02.264,0.00701791560277343,0,
00:00:02.268,0.00538149988278747,0,
00:00:02.272,-0.00975212454795837,0,
00:00:02.276,-0.00355020374991,0,
00:00:02.28,0.00567256193608046,0,
00:00:02.284,0.00359192979522049,0,
00:00:02.288,-0.00458360742777586,0,
00:00:02.292,-0.00279555143788457,0,
00:00:02.296,0.00477913254871964,0,
00:00:02.3,0.00257585220970213,0,
00:00:02.304,-0.00303377397358418,0,
00:00:02.308,-0.00685103097930551,0,
00:00:02.312,0.00539475446566939,0,
00:00:02.316,0.00434954324737191,0,
00:00:02.32,0.000239909670199268,0,
00:00:02.324,-0.0106993969529867,0,
00:00:02.328,0.00316799781285226,0,
00:00:02.332,0.00712825264781713,0,
00:00:02.336,0.00243925559334457,0,
00:00:02.34,-0.00632026279345155,0,
00:00:02.344,-0.00397559488192201,0,
00:00:02.348,0.00446689920499921,0,
00:00:02.352,0.00290261837653816,0,
00:00:02.356,-0.00455977022647858,0,
00:00:02.36,-0.0044402820058167,0,
00:00:02.364,0.00928870867937803,0,
00:00:02.368,0.0024972278624773,0,
00:00:02.372,-0.00656320340931416,0,
00:00:02.376,-0.0039634951390326,0,
00:00:02.38,0.00469999853521585,0,
00:00:02.384,0.00316009274683893,0,
00:00:02.388,-0.00234444229863584,0,
00:00:02.392,-0.00642317533493042,0,
00:00:02.396,0.00339334458112717,0,
00:00:02.4,0.00822739396244287,0,
00:00:02.404,-0.00449279230087996,0,
00:00:02.408,-0.00424897391349077,0,
00:00:02.412,0.00141022854950279,0,
00:00:02.416,0.00403989525511861,0,
00:00:02.42,-0.00120655097998679,0,
00:00:02.424,-0.00409762747585773,0,
00:00:02.428,-0.00112029537558556,0,
00:00:02.432,0.00585189461708069,0,
00:00:02.436,0.00269994745030999,0,
00:00:02.44,-0.00766014261171222,0,
00:00:02.444,-0.00140698533505201,0,
00:00:02.448,0.00634090602397919,0,
00:00:02.452,0.00300357211381197,0,
00:00:02.456,-0.00561827654018998,0,
00:00:02.46,-0.00359061500057578,0,
00:00:02.464,0.00450780428946018,0,
00:00:02.468,0.00275231036357582,0,
00:00:02.472,-0.00265843304805458,0,
00:00:02.476,-0.00651478627696633,0,
00:00:02.48,0.00556601537391543,0,
00:00:02.484,0.0064272889867425,0,
00:00:02.488,-0.00390892708674073,0,
00:00:02.492,-0.00840443093329668,0,
00:00:02.496,0.00258296262472868,0,
00:00:02.5,0.00856211874634027,0,
00:00:02.504,-0.00365879549644887,0,
00:00:02.508,-0.00353029253892601,0,
00:00:02.512,0.00171494239475578,0,
00:00:02.516,0.00394888827577233,0,
00:00:02.52,0.000574096804484725,0,
00:00:02.524,-0.00844187848269939,0,
00:00:02.528,0.00112051889300346,0,
00:00:02.532,0.00531792035326362,0,
00:00:02.536,0.00214858492836356,0,
00:00:02.54,-0.00755650829523802,0,
00:00:02.544,0.0011836962075904,0,
00:00:02.548,0.00486833835020661,0,
00:00:02.552,0.00159672321751714,0,
00:00:02.556,-0.00585027877241373,0,
00:00:02.56,-0.0029680710285902,0,
00:00:02.564,0.00530345179140568,0,
00:00:02.568,0.0032392458524555,0,
00:00:02.572,-0.0046845362521708,0,
00:00:02.576,-0.00271818670444191,0,
00:00:02.58,0.00282036536373198,0,
00:00:02.584,0.00669162534177303,0,
00:00:02.588,-0.00545205175876617,0,
00:00:02.592,-0.00432155700400472,0,
00:00:02.596,0.00190210377331823,0,
00:00:02.6,0.0067085805349052,0,
00:00:02.604,-0.00280377385206521,0,
00:00:02.608,-0.00773853715509176,0,
00:00:02.612,0.00261408160440624,0,
00:00:02.616,0.00822710432112217,0,
00:00:02.62,-0.00195107772015035,0,
00:00:02.624,-0.00778164342045784,0,
00:00:02.628,-2.60805045400048E-05,0,
00:00:02.632,0.00959296431392431,0,
00:00:02.636,0.00141178595367819,0,
00:00:02.64,-0.00962044484913349,0,
00:00:02.644,-0.000266864895820618,0,
00:00:02.648,0.0045589036308229,0,
00:00:02.652,0.00419239699840546,0,
00:00:02.656,-0.00912971701472998,0,
00:00:02.66,1.30244497995591E-05,0,
00:00:02.664,0.00291540287435055,0,
00:00:02.668,0.00447973422706127,0,
00:00:02.672,-0.00328400381840765,0,
00:00:02.676,-0.00439511518925428,0,
00:00:02.68,0.00639406079426408,0,
00:00:02.684,0.00557831302285194,0,
00:00:02.688,-0.00750793656334281,0,
00:00:02.692,-0.00761687662452459,0,
00:00:02.696,0.00589992012828588,0,
00:00:02.7,0.00497449515387416,0,
00:00:02.704,-0.00149619625881314,0,
00:00:02.708,-0.00453164614737034,0,
00:00:02.712,0.000739969953428954,0,
00:00:02.716,0.00388478371314704,0,
00:00:02.72,0.00117020402103662,0,
00:00:02.724,-0.00773374689742923,0,
00:00:02.728,-0.000524403294548392,0,
00:00:02.732,0.00942222401499748,0,
00:00:02.736,0.00160630804020911,0,
00:00:02.74,-0.00930373277515173,0,
00:00:02.744,-0.00212013721466064,0,
00:00:02.748,0.00658137956634164,0,
00:00:02.752,0.00366763095371425,0,
00:00:02.756,-0.00504249287769198,0,
00:00:02.76,-0.00335217150859535,0,
00:00:02.764,0.00442368071526289,0,
00:00:02.768,0.00457968330010772,0,
00:00:02.772,-0.00695268670096993,0,
00:00:02.776,-0.00631928304210305,0,
00:00:02.78,0.00701334606856108,0,
00:00:02.784,0.00750707183033228,0,
00:00:02.788,-0.00572011712938547,0,
00:00:02.792,-0.00676914770156145,0,
00:00:02.796,0.00577121321111918,0,
00:00:02.8,0.00637017982080579,0,
00:00:02.804,-0.00419969763606787,0,
00:00:02.808,-0.00870081130415201,0,
00:00:02.812,0.00243969028815627,0,
00:00:02.816,0.00859451945871115,0,
00:00:02.82,-0.00144638051278889,0,
00:00:02.824,-0.00535848177969456,0,
00:00:02.828,-0.00190892838872969,0,
00:00:02.832,0.00784705765545368,0,
00:00:02.836,-0.001018758979626,0,
00:00:02.84,-0.00487275375053287,0,
00:00:02.844,-0.0017137675313279,0,
00:00:02.848,0.00778523180633783,0,
00:00:02.852,0.000894676428288221,0,
00:00:02.856,-0.00697801169008017,0,
00:00:02.86,-0.00339703937061131,0,
00:00:02.864,0.0034926098305732,0,
00:00:02.868,0.00783317629247904,0,
00:00:02.872,-0.0045809899456799,0,
00:00:02.876,-0.0040243873372674,0,
00:00:02.88,0.00378696853294969,0,
00:00:02.884,0.00225031888112426,0,
00:00:02.888,-0.00491085648536682,0,
00:00:02.892,-0.00448362994939089,0,
00:00:02.896,0.00734990974888206,0,
00:00:02.9,0.0067199501208961,0,
00:00:02.904,-0.00678491313010454,0,
00:00:02.908,-0.00747894030064344,0,
00:00:02.912,0.00561820948496461,0,
00:00:02.916,0.00455878302454948,0,
00:00:02.92,-0.00181617052294314,0,
00:00:02.924,-0.00466001220047474,0,
00:00:02.928,-0.00129760394338518,0,
00:00:02.932,0.00805495027452707,0,
00:00:02.936,-0.00112363672815263,0,
00:00:02.94,-0.00508412858471274,0,
00:00:02.944,-0.00394720071926713,0,
00:00:02.948,0.009717489592731,0,
00:00:02.952,0.00258729164488614,0,
00:00:02.956,-0.00671358592808247,0,
00:00:02.96,-0.00416684942319989,0,
00:00:02.964,0.00457442831248045,0,
00:00:02.968,0.00314788473770022,0,
00:00:02.972,-0.00435326527804136,0,
00:00:02.976,-0.00228390679694712,0,
00:00:02.98,0.00312432576902211,0,
00:00:02.984,0.00678563583642244,0,
00:00:02.988,-0.0055231349542737,0,
00:00:02.992,-0.00445966608822346,0,
00:00:02.996,0.00178365351166576,0,
00:00:03,0.00665231747552752,0,
00:00:03.004,-0.00487534515559673,0,
00:00:03.008,-0.00364968227222562,0,
00:00:03.012,0.00232195714488626,0,
00:00:03.016,0.00678757112473249,0,
00:00:03.02,-0.00296548893675208,0,
00:00:03.024,-0.0100510204210877,0,
00:00:03.028,0.0044089057482779,0,
00:00:03.032,0.00979843828827143,0,
00:00:03.036,-0.00175035162828863,0,
00:00:03.04,-0.00647990545257926,0,
00:00:03.044,-0.0029635108076036,0,
00:00:03.048,0.00735590606927872,0,
00:00:03.052,-0.000919935933779925,0,
00:00:03.056,-0.00236742687411606,0,
00:00:03.06,-0.00323664792813361,0,
00:00:03.064,0.00226927432231605,0,
00:00:03.068,0.00680257054045796,0,
00:00:03.072,-0.00699636433273554,0,
00:00:03.076,-0.00182483997195959,0,
00:00:03.08,0.00379269476979971,0,
00:00:03.084,0.00683567905798554,0,
00:00:03.088,-0.00386860221624374,0,
00:00:03.092,-0.00900330953299999,0,
00:00:03.096,0.00183500605635345,0,
00:00:03.1,0.00811078865081072,0,
00:00:03.104,0.000471941544674337,0,
00:00:03.108,-0.00927448831498623,0,
00:00:03.112,-0.0033835603389889,0,
00:00:03.116,0.013603544794023,0,
00:00:03.12,-0.000206790224183351,0,
00:00:03.124,-0.00822254549711943,0,
00:00:03.128,0.00085469038458541,0,
00:00:03.132,0.00663866521790624,0,
00:00:03.136,-0.00268508633598685,0,
00:00:03.14,-0.00767250219359994,0,
00:00:03.144,0.00261396961286664,0,
00:00:03.148,0.00613154470920563,0,
00:00:03.152,0.00209575495682657,0,
00:00:03.156,-0.00602024281397462,0,
00:00:03.16,-0.00343529065139592,0,
00:00:03.164,0.00488356174901128,0,
00:00:03.168,0.000965183950029314,0,
00:00:03.172,-0.000609436247032136,0,
00:00:03.176,-0.00290413224138319,0,
00:00:03.18,0.00151310872752219,0,
00:00:03.184,0.00576851051300764,0,
00:00:03.188,-0.00354159227572382,0,
00:00:03.192,-0.00800948590040207,0,
00:00:03.196,0.00273364968597889,0,
00:00:03.2,0.00851754657924175,0,
00:00:03.204,-0.00169120007194579,0,
00:00:03.208,-0.0076550105586648,0,
00:00:03.212,0.00204196362756193,0,
00:00:03.216,0.00753365829586983,0,
00:00:03.22,-0.00447473954409361,0,
00:00:03.224,-0.0038294477853924,0,
00:00:03.228,0.00187147851102054,0,
00:00:03.232,0.00431751692667603,0,
00:00:03.236,0.00299004162661731,0,
00:00:03.24,-0.0143890315666795,0,
00:00:03.244,0.00551436422392726,0,
00:00:03.248,0.00635562464594841,0,
00:00:03.252,0.00366494664922357,0,
00:00:03.256,-0.0104437032714486,0,
00:00:03.26,-0.00313831632956862,0,
00:00:03.264,0.00653412006795406,0,
00:00:03.268,0.00635883118957281,0,
00:00:03.272,-0.00631670141592622,0,
00:00:03.276,-0.0066702114418149,0,
00:00:03.28,0.00416154880076647,0,
00:00:03.284,0.00880248192697763,0,
00:00:03.288,-0.00439987471327186,0,
00:00:03.292,-0.00448422646149993,0,
00:00:03.296,0.00318179791793227,0,
00:00:03.3,0.00187168852426112,0,
00:00:03.304,-0.00287971249781549,0,
00:00:03.308,-0.00626598624512553,0,
00:00:03.312,0.00596878118813038,0,
00:00:03.316,0.00466111861169338,0,
00:00:03.32,0.000258380168816075,0,
00:00:03.324,-0.00878753513097763,0,
00:00:03.328,0.000991089036688209,0,
00:00:03.332,0.00742438621819019,0,
00:00:03.336,-0.00390594080090523,0,
00:00:03.34,-0.00313618220388889,0,
00:00:03.344,0.000221055990550667,0,
00:00:03.348,0.00842251349240541,0,
00:00:03.352,0.000375498755602166,0,
00:00:03.356,-0.0100057972595096,0,
00:00:03.36,-0.00217173155397177,0,
00:00:03.364,0.00693735433742404,0,
00:00:03.368,0.00825614389032125,0,
00:00:03.372,-0.0128531958907843,0,
00:00:03.376,-0.00468373205512762,0,
00:00:03.38,0.0113220019266009,0,
00:00:03.384,0.00406809384003282,0,
00:00:03.388,-0.0041129607707262,0,
00:00:03.392,-0.00644198106601834,0,
00:00:03.396,0.00022318129776977,0,
00:00:03.4,0.00441651744768023,0,
00:00:03.404,-1.4705969078932E-05,0,
00:00:03.408,-0.0029899321962148,0,
00:00:03.412,0.00148035457823426,0,
00:00:03.416,0.00587030919268727,0,
00:00:03.42,-0.00341819017194211,0,
00:00:03.424,-0.00795853137969971,0,
00:00:03.428,0.000618929625488818,0,
00:00:03.432,0.010402406565845,0,
00:00:03.436,0.00193665828555822,0,
00:00:03.44,-0.00950814317911863,0,
00:00:03.444,-0.00253090402111411,0,
00:00:03.448,0.00624585384503007,0,
00:00:03.452,0.00353344692848623,0,
00:00:03.456,-0.00499387178570032,0,
00:00:03.46,-0.00321387662552297,0,
00:00:03.464,0.00455660466104746,0,
00:00:03.468,0.00465296721085906,0,
00:00:03.472,-0.00902136508375406,0,
00:00:03.476,-0.00230281171388924,0,
00:00:03.48,0.00663588382303715,0,
00:00:03.484,0.00393547490239143,0,
00:00:03.488,-0.00269856187514961,0,
00:00:03.492,-0.00728060537949204,0,
00:00:03.496,0.0026409721467644,0,
00:00:03.5,0.00788626074790955,0,
00:00:03.504,-0.00235433573834598,0,
00:00:03.508,-0.00801917538046837,0,
00:00:03.512,0.00411140406504273,0,
00:00:03.516,0.00370454834774137,0,
00:00:03.52,0.0002788893179968,0,
00:00:03.524,-0.00820615142583847,0,
00:00:03.528,0.00164034054614604,0,
00:00:03.532,0.00782553479075432,0,
00:00:03.536,-0.0017520347610116,0,
00:00:03.54,-0.00525885820388794,0,
00:00:03.544,-0.00371411605738103,0,
00:00:03.548,0.0079794991761446,0,
00:00:03.552,0.00684706168249249,0,
00:00:03.556,-0.00911196507513523,0,
00:00:03.56,-0.00378536735661328,0,
00:00:03.564,0.00710768951103091,0,
00:00:03.568,0.00104531901888549,0,
00:00:03.572,-0.00648422818630934,0,
00:00:03.576,-0.000844593916554004,0,
00:00:03.58,0.00179133121855557,0,
00:00:03.584,1.37468168759369E-05,0,
00:00:03.588,0.00522503443062305,0,
00:00:03.592,-0.000264238129602745,0,
00:00:03.596,-0.00416244566440582,0,
00:00:03.6,0.00434992276132107,0,
00:00:03.604,-0.00507589289918542,0,
00:00:03.608,-0.00294910976663232,0,
00:00:03.612,0.00103209377266467,0,
00:00:03.616,0.0113045014441013,0,
00:00:03.62,-0.00321749551221728,0,
00:00:03.624,-0.0075332592241466,0,
00:00:03.628,-0.00287174596451223,0,
00:00:03.632,0.0060618775896728,0,
00:00:03.636,0.0060082795098424,0,
00:00:03.64,-0.0104912342503667,0,
00:00:03.644,0.00370175298303366,0,
00:00:03.648,-0.000328554771840572,0,
00:00:03.652,0.00634279754012823,0,
00:00:03.656,-0.00495800422504544,0,
00:00:03.66,-0.00597630999982357,0,
00:00:03.664,0.00604742113500834,0,
00:00:03.668,0.00830112583935261,0,
00:00:03.672,-0.0126877604052424,0,
00:00:03.676,-0.000471472565550357,0,
00:00:03.68,0.00319182011298835,0,
00:00:03.684,0.0067648496478796,0,
00:00:03.688,-0.00732597010210156,0,
00:00:03.692,2.96684424938576E-06,0,
00:00:03.696,-0.0023860668297857,0,
00:00:03.7,0.0154691357165575,0,
00:00:03.704,-0.0106944050639868,0,
00:00:03.708,-0.00867316499352455,0,
00:00:03.712,0.00812126416712999,0,
00:00:03.716,-0.000628627080004662,0,
00:00:03.72,0.00328606879338622,0,
00:00:03.724,-0.00537234544754028,0,
00:00:03.728,0.00421538297086954,0,
00:00:03.732,0.00457716872915626,0,
00:00:03.736,-0.00717579247429967,0,
00:00:03.74,-0.00666862400248647,0,
00:00:03.744,0.00465835211798549,0,
00:00:03.748,0.0114554101601243,0,
00:00:03.752,-0.00391782633960247,0,
00:00:03.756,-0.00799441710114479,0,
00:00:03.76,0.00126560858916491,0,
00:00:03.764,-0.00593947060406208,0,
00:00:03.768,0.00882430840283632,0,
00:00:03.772,0.00614851480349898,0,
00:00:03.776,-0.0043202736414969,0,
00:00:03.78,-0.00210836855694652,0,
00:00:03.784,0.0010597602231428,0,
00:00:03.788,-0.00228758552111685,0,
00:00:03.792,-0.00564272562041879,0,
00:00:03.796,0.00621622195467353,0,
00:00:03.8,0.00459028128534555,0,
00:00:03.804,-0.00200854311697185,0,
00:00:03.808,-0.00488596549257636,0,
00:00:03.812,0.000615541881415993,0,
00:00:03.816,0.00393219897523522,0,
00:00:03.82,-0.000789048441220075,0,
00:00:03.824,-0.00565775902941823,0,
00:00:03.828,0.00531426770612597,0,
00:00:03.832,0.00356468209065497,0,
00:00:03.836,-0.00265726051293314,0,
00:00:03.84,-0.00502960663288832,0,
00:00:03.844,0.000832407095003873,0,
00:00:03.848,0.00426844926550984,0,
00:00:03.852,0.00154911959543824,0,
00:00:03.856,-0.00129896984435618,0,
00:00:03.86,-0.0147384367883205,0,
00:00:03.864,0.0143679054453969,0,
00:00:03.868,0.00761289335787296,0,
00:00:03.872,-0.00977460388094187,0,
00:00:03.876,-0.00633031781762838,0,
00:00:03.88,0.0111761726438999,0,
00:00:03.884,0.00306821335107088,0,
00:00:03.888,-0.0138136111199856,0,
00:00:03.892,-0.00153487839270383,0,
00:00:03.896,0.00662044202908874,0,
00:00:03.9,0.00932741072028875,0,
00:00:03.904,-0.00284807756543159,0,
00:00:03.908,-0.00932774879038334,0,
00:00:03.912,0.00294389063492417,0,
00:00:03.916,0.00314703560434282,0,
00:00:03.92,-0.00174745114054531,0,
00:00:03.924,-0.00169237330555916,0,
00:00:03.928,-0.00232506520114839,0,
00:00:03.932,0.00487577728927135,0,
00:00:03.936,-0.00135474489070475,0,
00:00:03.94,0.00117889884859324,0,
00:00:03.944,-0.0013477299362421,0,
00:00:03.948,0.00374488509260118,0,
00:00:03.952,0.00295092584565282,0,
00:00:03.956,-0.00828971061855555,0,
00:00:03.96,-0.0110048381611705,0,
00:00:03.964,0.013223429210484,0,
00:00:03.968,0.0114196604117751,0,
00:00:03.972,-0.0105575602501631,0,
00:00:03.976,-0.00595359643921256,0,
00:00:03.98,0.00821603648364544,0,
00:00:03.984,-0.00272726966068149,0,
00:00:03.988,-0.00945635046809912,0,
00:00:03.992,0.00531991478055716,0,
00:00:03.996,0.00641602091491222,0,
00:00:04,0.00875918380916119,0,
00:00:04.004,-0.00922473426908255,0,
00:00:04.008,-0.00995101872831583,0,
00:00:04.012,0.00469081709161401,0,
00:00:04.016,0.01126195397228,0,
00:00:04.02,-0.0149754853919148,0,
00:00:04.024,-0.00284579698927701,0,
00:00:04.028,0.0112644135951996,0,
00:00:04.032,0.00888757687062025,0,
00:00:04.036,-0.00279605248942971,0,
00:00:04.04,-0.0129079669713974,0,
00:00:04.044,-0.00336551666259766,0,
00:00:04.048,0.0093701770529151,0,
00:00:04.052,-0.000945379550103098,0,
00:00:04.056,-0.00144593440927565,0,
00:00:04.06,0.00240255729295313,0,
00:00:04.064,0.00561091396957636,0,
00:00:04.068,-0.00431739678606391,0,
00:00:04.072,-0.00465289643034339,0,
00:00:04.076,-0.00373275741003454,0,
00:00:04.08,0.00303386361338198,0,
00:00:04.084,0.00586583605036139,0,
00:00:04.088,-3.16992736770771E-05,0,
00:00:04.092,-0.00592741789296269,0,
00:00:04.096,0.0045615341514349,0,
00:00:04.1,0.00493317749351263,0,
00:00:04.104,-0.00500572752207518,0,
00:00:04.108,-0.0129141304641962,0,
00:00:04.112,0.00885906722396612,0,
00:00:04.116,0.00830472446978092,0,
00:00:04.12,-0.000447401835117489,0,
00:00:04.124,-0.0055039688013494,0,
00:00:04.128,0.0011084369616583,0,
00:00:04.132,0.000585111207328737,0,
00:00:04.136,-0.00509057659655809,0,
00:00:04.14,0.00254157115705311,0,
00:00:04.144,-0.00586405256763101,0,
00:00:04.148,0.0103836553171277,0,
00:00:04.152,0.00151663541328162,0,
00:00:04.156,-0.00433450657874346,0,
00:00:04.16,-0.000699548400007188,0,
00:00:04.164,0.00221807020716369,0,
00:00:04.168,0.00224069925025105,0,
00:00:04.172,-0.00985085684806108,0,
00:00:04.176,-0.00379569106735289,0,
00:00:04.18,0.0139050101861358,0,
00:00:04.184,-0.00158987881150097,0,
00:00:04.188,-0.00147856236435473,0,
00:00:04.192,0.000900292710866779,0,
00:00:04.196,-0.00473499624058604,0,
00:00:04.2,0.000149860308738425,0,
00:00:04.204,0.00369960558600724,0,
00:00:04.208,-0.0048242793418467,0,
00:00:04.212,0.000651094014756382,0,
00:00:04.216,0.0110181923955679,0,
00:00:04.22,-0.00364924035966396,0,
00:00:04.224,-0.0120930699631572,0,
00:00:04.228,0.00293975253589451,0,
00:00:04.232,0.0136095248162746,0,
00:00:04.236,-0.00727608008310199,0,
00:00:04.24,-0.00701659126207232,0,
00:00:04.244,-0.00316492118872702,0,
00:00:04.248,0.0114095201715827,0,
00:00:04.252,0.00391056993976235,0,
00:00:04.256,-0.00625279219821095,0,
00:00:04.26,-0.00443925568833947,0,
00:00:04.264,0.00190454709809273,0,
00:00:04.268,0.00459426129236817,0,
00:00:04.272,-0.00297432509250939,0,
00:00:04.276,-0.00210057990625501,0,
00:00:04.28,0.00867075473070145,0,
00:00:04.284,-0.00621161796152592,0,
00:00:04.288,-0.00503607653081417,0,
00:00:04.292,-0.000117573486932088,0,
00:00:04.296,0.00718410778790712,0,
00:00:04.3,0.00558261852711439,0,
00:00:04.304,-0.00745235988870263,0,
00:00:04.308,-0.00538028869777918,0,
00:00:04.312,0.00405097007751465,0,
00:00:04.316,0.0012622777139768,0,
00:00:04.32,0.000199323214474134,0,
00:00:04.324,-0.0063415514305234,0,
00:00:04.328,0.00993068981915712,0,
00:00:04.332,0.00502635538578033,0,
00:00:04.336,-0.00675503257662058,0,
00:00:04.34,-0.0103376554325223,0,
00:00:04.344,0.00426976149901748,0,
00:00:04.348,0.00523238349705935,0,
00:00:04.352,-0.000193525906070136,0,
00:00:04.356,-0.00533124478533864,0,
00:00:04.36,0.00334661896340549,0,
00:00:04.364,0.00753066269680858,0,
00:00:04.368,-0.00318699912168086,0,
00:00:04.372,-0.0046228701248765,0,
00:00:04.376,-0.00645120721310377,0,
00:00:04.38,0.00634489627555013,0,
00:00:04.384,0.00507490383461118,0,
00:00:04.388,-0.00365369231440127,0,
00:00:04.392,-0.00271397037431598,0,
00:00:04.396,0.00222956296056509,0,
00:00:04.4,0.003962735645473,0,
00:00:04.404,-0.001783087849617,0,
00:00:04.408,-0.00677332142367959,0,
00:00:04.412,0.00259554013609886,0,
00:00:04.416,0.00964738428592682,0,
00:00:04.42,-0.00876571517437696,0,
00:00:04.424,-0.00166459241881967,0,
00:00:04.428,0.00125952437520027,0,
00:00:04.432,0.00166836485732347,0,
00:00:04.436,0.000949528010096401,0,
00:00:04.44,-0.00199884502217174,0,
00:00:04.444,0.00152362883090973,0,
00:00:04.448,0.00317413569428027,0,
00:00:04.452,-6.91050372552127E-05,0,
00:00:04.456,-0.00660805497318506,0,
00:00:04.46,-0.00282257236540318,0,
00:00:04.464,0.00799261592328548,0,
00:00:04.468,-0.000196938839508221,0,
00:00:04.472,-0.00400775531306863,0,
00:00:04.476,-0.00329710566438735,0,
00:00:04.48,0.0118757653981447,0,
00:00:04.484,0.000303787150187418,0,
00:00:04.488,-0.0108477044850588,0,
00:00:04.492,0.00147680542431772,0,
00:00:04.496,-0.00115546560846269,0,
00:00:04.5,0.00506752962246537,0,
00:00:04.504,0.00263768783770502,0,
00:00:04.508,-0.00710460683330894,0,
00:00:04.512,0.00131233339197934,0,
00:00:04.516,0.00471519818529487,0,
00:00:04.52,-0.000740490504540503,0,
00:00:04.524,-0.00408728001639247,0,
00:00:04.528,0.000659571902360767,0,
00:00:04.532,0.00560288783162832,0,
00:00:04.536,-0.00736886588856578,0,
00:00:04.54,0.000549983873497695,0,
00:00:04.544,0.00238928780891001,0,
00:00:04.548,0.00360510451719165,0,
00:00:04.552,-0.00184255081694573,0,
00:00:04.556,-0.00446549011394382,0,
00:00:04.56,0.000904210843145847,0,
00:00:04.564,0.00193290924653411,0,
00:00:04.568,0.00526998890563846,0,
00:00:04.572,-0.00599993532523513,0,
00:00:04.576,-0.0039968709461391,0,
00:00:04.58,0.00465656910091639,0,
00:00:04.584,0.00113242748193443,0,
00:00:04.588,-0.000290860189124942,0,
00:00:04.592,-0.000587468384765089,0,
00:00:04.596,-0.00454634893685579,0,
00:00:04.6,0.00799881294369698,0,
00:00:04.604,-0.000572588469367474,0,
00:00:04.608,-0.00485441461205482,0,
00:00:04.612,-0.00203191582113504,0,
00:00:04.616,0.00742888078093529,0,
00:00:04.62,0.000706286053173244,0,
00:00:04.624,-0.0111104939132929,0,
00:00:04.628,0.00277851009741426,0,
00:00:04.632,0.0111985625699162,0,
00:00:04.636,-0.00341932056471705,0,
00:00:04.64,-0.0115377372130752,0,
00:00:04.644,0.00351482001133263,0,
00:00:04.648,0.0139208324253559,0,
00:00:04.652,-0.00729331048205495,0,
00:00:04.656,-0.00932419952005148,0,
00:00:04.66,0.0026866749394685,0,
00:00:04.664,0.00890952628105879,0,
00:00:04.668,-0.00133640924468637,0,
00:00:04.672,-0.00543805351480842,0,
00:00:04.676,-0.00206051534041762,0,
00:00:04.68,0.00357610732316971,0,
00:00:04.684,0.00704133696854115,0,
00:00:04.688,-0.00551380682736635,0,
00:00:04.692,-0.00458742957562208,0,
00:00:04.696,0.00372112332843244,0,
00:00:04.7,0.00460262130945921,0,
00:00:04.704,-0.00859197229146957,0,
00:00:04.708,-0.0018033639062196,0,
00:00:04.712,0.00486294599249959,0,
00:00:04.716,0.00595386466011405,0,
00:00:04.72,0.000883955217432231,0,
00:00:04.724,-0.00926418229937553,0,
00:00:04.728,1.96653218154097E-05,0,
00:00:04.732,0.00455587403848767,0,
00:00:04.736,-0.000144836682011373,0,
00:00:04.74,-0.00330076576210558,0,
00:00:04.744,0.0012191548012197,0,
00:00:04.748,0.00163602735847235,0,
00:00:04.752,0.00269378931261599,0,
00:00:04.756,-0.00233404454775155,0,
00:00:04.76,-0.00654709432274103,0,
00:00:04.764,0.00523475045338273,0,
00:00:04.768,0.00606975192204118,0,
00:00:04.772,-0.00617495970800519,0,
00:00:04.776,-0.00226369476877153,0,
00:00:04.78,-0.00165876722894609,0,
00:00:04.784,0.00759530533105135,0,
00:00:04.788,-0.00517838262021542,0,
00:00:04.792,-0.000686739746015519,0,
00:00:04.796,0.00806471612304449,0,
00:00:04.8,0.000277943152468652,0,
00:00:04.804,-0.00791224185377359,0,
00:00:04.808,-0.00409138202667236,0,
00:00:04.812,0.00327161466702819,0,
00:00:04.816,0.00800955388695002,0,
00:00:04.82,-0.00215715472586453,0,
00:00:04.824,-0.00776886893436313,0,
00:00:04.828,0.00219861138612032,0,
00:00:04.832,0.00776654947549105,0,
00:00:04.836,-0.00223814859054983,0,
00:00:04.84,-0.00784252118319273,0,
00:00:04.844,7.22932891221717E-05,0,
00:00:04.848,0.0118184080347419,0,
00:00:04.852,-0.00252376263961196,0,
00:00:04.856,-0.0092411246150732,0,
00:00:04.86,0.00325955240987241,0,
00:00:04.864,0.00148405367508531,0,
00:00:04.868,0.0025929156690836,0,
00:00:04.872,-0.00403361115604639,0,
00:00:04.876,-0.00192716158926487,0,
00:00:04.88,0.00531483953818679,0,
00:00:04.884,0.00263569387607276,0,
00:00:04.888,-0.00536659313365817,0,
00:00:04.892,-0.00313185341656208,0,
00:00:04.896,0.006907032802701,0,
00:00:04.9,-0.00123581232037395,0,
00:00:04.904,-0.00246605789288878,0,
00:00:04.908,-0.00318595534190536,0,
00:00:04.912,0.00236672325991094,0,
00:00:04.916,0.00687324162572622,0,
00:00:04.92,-0.00282686972059309,0,
00:00:04.924,-0.00787511747330427,0,
00:00:04.928,0.00244450545869768,0,
00:00:04.932,0.00601576222106814,0,
00:00:04.936,-0.00212072068825364,0,
00:00:04.94,-0.00209523923695087,0,
00:00:04.944,0.0019233349012211,0,
00:00:04.948,0.00327145494520664,0,
00:00:04.952,-0.00235284003429115,0,
00:00:04.956,-0.00283672823570669,0,
00:00:04.96,-0.00539820175617933,0,
00:00:04.964,0.00850149244070053,0,
00:00:04.968,0.00468920031562448,0,
00:00:04.972,-0.0119786001741886,0,
00:00:04.976,-0.000901301275007427,0,
00:00:04.98,0.0103106508031487,0,
00:00:04.984,0.00241137645207345,0,
00:00:04.988,-0.00487530278041959,0,
00:00:04.992,-0.00831741467118263,0,
00:00:04.996,0.00492563610896468,0,
00:00:05,0.00674592098221183,0,
00:00:05.004,-0.00527111114934087,0,
00:00:05.008,-0.00166636053472757,0,
00:00:05.012,0.000545659917406738,0,
00:00:05.016,0.00540151027962565,0,
00:00:05.02,-0.00508074508979917,0,
00:00:05.024,-0.00725474487990141,0,
00:00:05.028,0.00903046596795321,0,
00:00:05.032,0.00641519483178854,0,
00:00:05.036,-0.000195577085833065,0,
00:00:05.04,-0.0104222660884261,0,
00:00:05.044,-0.000552099663764238,0,
00:00:05.048,0.00461219856515527,0,
00:00:05.052,0.00441118888556957,0,
00:00:05.056,-0.0109730772674084,0,
00:00:05.06,0.00214072689414024,0,
00:00:05.064,0.00460568629205227,0,
00:00:05.068,0.00670376047492027,0,
00:00:05.072,-0.00616126460954547,0,
00:00:05.076,-0.00503957364708185,0,
00:00:05.08,0.00151194271165878,0,
00:00:05.084,0.00459951441735029,0,
00:00:05.088,-0.000646456144750118,0,
00:00:05.092,-0.00379733904264867,0,
00:00:05.096,-0.00111228600144386,0,
00:00:05.1,0.00983134377747774,0,
00:00:05.104,-0.00560835609212518,0,
00:00:05.108,-0.00505625922232866,0,
00:00:05.112,0.00158373825252056,0,
00:00:05.116,0.00687386747449636,0,
00:00:05.12,-0.00450889859348536,0,
00:00:05.124,-0.00130918447393924,0,
00:00:05.128,0.000413639732869342,0,
00:00:05.132,0.00297699635848403,0,
00:00:05.136,0.000754045438952744,0,
00:00:05.14,-0.00759392417967319,0,
00:00:05.144,-0.000138834118843079,0,
00:00:05.148,0.0118241971358657,0,
00:00:05.152,-0.000246773939579725,0,
00:00:05.156,-0.0110128847882152,0,
00:00:05.16,-0.00245532742701471,0,
00:00:05.164,0.0072764502838254,0,
00:00:05.168,0.00461546517908573,0,
00:00:05.172,-0.00441832933574915,0,
00:00:05.176,-0.00323135615326464,0,
00:00:05.18,0.00417167879641056,0,
00:00:05.184,0.00628030672669411,0,
00:00:05.188,-0.0133715635165572,0,
00:00:05.192,-0.00413092877715826,0,
00:00:05.196,0.0122272958979011,0,
00:00:05.2,0.00475893635302782,0,
00:00:05.204,-0.00386440544389188,0,
00:00:05.208,-0.00656968075782061,0,
00:00:05.212,-7.48507445678115E-05,0,
00:00:05.216,0.00622051488608122,0,
00:00:05.22,-0.0021304830443114,0,
00:00:05.224,-0.00878705270588398,0,
00:00:05.228,0.00740781426429749,0,
00:00:05.232,0.0081141022965312,0,
00:00:05.236,-0.00361751858144999,0,
00:00:05.24,-0.00917395018041134,0,
00:00:05.244,0.00362305366434157,0,
00:00:05.248,0.00173691299278289,0,
00:00:05.252,-0.00151359301526099,0,
00:00:05.256,0.00397073663771153,0,
00:00:05.26,-0.00272716488689184,0,
00:00:05.264,0.00436944933608174,0,
00:00:05.268,-0.00347841391339898,0,
00:00:05.272,-0.00745056802406907,0,
00:00:05.276,0.00322585343383253,0,
00:00:05.28,0.00457847025245428,0,
00:00:05.284,0.00636872230097651,0,
00:00:05.288,-0.00848800968378782,0,
00:00:05.292,-0.003125443123281,0,
00:00:05.296,0.00530808046460152,0,
00:00:05.3,0.00292210606858134,0,
00:00:05.304,-0.00304270442575216,0,
00:00:05.308,-0.00497395917773247,0,
00:00:05.312,0.00115433800965548,0,
00:00:05.316,0.00460842810571194,0,
00:00:05.32,-0.000328880763845518,0,
00:00:05.324,-0.00552746094763279,0,
00:00:05.328,0.00311601930297911,0,
00:00:05.332,0.00532016716897488,0,
00:00:05.336,0.00295294425450265,0,
00:00:05.34,-0.0130385337397456,0,
00:00:05.344,0.000666553736664355,0,
00:00:05.348,0.00623168982565403,0,
00:00:05.352,0.00302237644791603,0,
00:00:05.356,-0.00719951512292027,0,
00:00:05.36,-0.00099540944211185,0,
00:00:05.364,0.010689428076148,0,
00:00:05.368,-0.00305947544984519,0,
00:00:05.372,-0.00917922239750624,0,
00:00:05.376,-0.000521301699336618,0,
00:00:05.38,0.00996110122650862,0,
00:00:05.384,0.00213039969094098,0,
00:00:05.388,-0.00487835565581918,0,
00:00:05.392,-0.0102054895833135,0,
00:00:05.396,0.00919303763657808,0,
00:00:05.4,0.00446882424876094,0,
00:00:05.404,-0.00474158674478531,0,
00:00:05.408,-0.00317905284464359,0,
00:00:05.412,0.00450707226991653,0,
00:00:05.416,0.00456159422174096,0,
00:00:05.42,-0.00497171841561794,0,
00:00:05.424,-0.0104888286441565,0,
00:00:05.428,0.00102615496143699,0,
00:00:05.432,0.0148536209017038,0,
00:00:05.436,0.0064534661360085,0,
00:00:05.44,-0.00780229922384024,0,
00:00:05.444,-0.0143053699284792,0,
00:00:05.448,0.00476686982437968,0,
00:00:05.452,0.00839943159371614,0,
00:00:05.456,-0.00589144229888916,0,
00:00:05.46,0.000909156922716647,0,
00:00:05.464,0.00412697438150644,0,
00:00:05.468,0.00313923787325621,0,
00:00:05.472,-0.0100623536854982,0,
00:00:05.476,-0.0025262872222811,0,
00:00:05.48,0.00696756830438972,0,
00:00:05.484,0.00441130623221397,0,
00:00:05.488,-0.0044483202509582,0,
00:00:05.492,-0.00314911082386971,0,
00:00:05.496,0.00427631847560406,0,
00:00:05.5,0.00427080970257521,0,
00:00:05.504,-0.00930911023169756,0,
00:00:05.508,-0.00241621187888086,0,
00:00:05.512,0.00667145475745201,0,
00:00:05.516,0.00404237536713481,0,
00:00:05.52,-0.00467171939089894,0,
00:00:05.524,-0.00524919480085373,0,
00:00:05.528,0.00636363681405783,0,
00:00:05.532,0.00606081122532487,0,
00:00:05.536,-0.00487330555915833,0,
00:00:05.54,-0.00717166811227798,0,
00:00:05.544,0.000265207723714411,0,
00:00:05.548,0.0049892058596015,0,
00:00:05.552,0.000610168266575783,0,
00:00:05.556,-0.00263574300333858,0,
00:00:05.56,0.00149754947051406,0,
00:00:05.564,0.00151514506433159,0,
00:00:05.568,0.00443013198673725,0,
00:00:05.572,-0.00465177278965712,0,
00:00:05.576,-0.0104723712429404,0,
00:00:05.58,0.00698905298486352,0,
00:00:05.584,0.00654753018170595,0,
00:00:05.588,-0.000814524362795055,0,
00:00:05.592,-0.00895587168633938,0,
00:00:05.596,0.00811554305255413,0,
00:00:05.6,0.00255821575410664,0,
00:00:05.604,-0.00622813170775771,0,
00:00:05.608,-0.00163699756376445,0,
00:00:05.612,0.000747536425478756,0,
00:00:05.616,0.00141202146187425,0,
00:00:05.62,0.00313062826171517,0,
00:00:05.624,-0.0057663144543767,0,
00:00:05.628,0.00418654968962073,0,
00:00:05.632,0.00485337665304542,0,
00:00:05.636,-0.00684469379484653,0,
00:00:05.64,-0.00646980060264468,0,
00:00:05.644,0.00467572035267949,0,
00:00:05.648,0.00927171111106873,0,
00:00:05.652,-0.00208358513191342,0,
00:00:05.656,-0.00853097252547741,0,
00:00:05.66,-0.00077108881669119,0,
00:00:05.664,0.0112815443426371,0,
00:00:05.668,-0.000553387159015983,0,
00:00:05.672,-0.0110128102824092,0,
00:00:05.676,-0.00430757505819201,0,
00:00:05.68,0.00954106729477644,0,
00:00:05.684,0.00855461228638887,0,
00:00:05.688,-0.00819696113467216,0,
00:00:05.692,-0.00375604000873864,0,
00:00:05.696,0.00661294953897595,0,
00:00:05.7,0.000468965852633119,0,
00:00:05.704,-0.00477538350969553,0,
00:00:05.708,-0.0112041123211384,0,
00:00:05.712,0.0102502852678299,0,
00:00:05.716,0.0108488630503416,0,
00:00:05.72,-0.00271801184862852,0,
00:00:05.724,-0.00775012513622642,0,
00:00:05.728,-0.00165472214575857,0,
00:00:05.732,0.00317771849222481,0,
00:00:05.736,0.00385076785460114,0,
00:00:05.74,-0.0106936423107982,0,
00:00:05.744,0.0027680960483849,0,
00:00:05.748,0.00720230350270867,0,
00:00:05.752,0.00285649718716741,0,
00:00:05.756,-0.00591563014313579,0,
00:00:05.76,-0.0058803977444768,0,
00:00:05.764,0.0105154803022742,0,
00:00:05.768,-0.00169540196657181,0,
00:00:05.772,-0.00590439885854721,0,
00:00:05.776,-0.00204568658955395,0,
00:00:05.78,0.00604880740866065,0,
00:00:05.784,0.00553413759917021,0,
00:00:05.788,-0.00685497978702188,0,
00:00:05.792,-0.00677751563489437,0,
00:00:05.796,0.0043517742305994,0,
00:00:05.8,0.00907719507813454,0,
00:00:05.804,-0.00212480523623526,0,
00:00:05.808,-0.00639431970193982,0,
00:00:05.812,-0.000579559593461454,0,
00:00:05.816,0.00358041538856924,0,
00:00:05.82,-0.000473406107630581,0,
00:00:05.824,-0.0050997631624341,0,
00:00:05.828,0.00575804058462381,0,
00:00:05.832,0.00581506965681911,0,
00:00:05.836,-0.0067729982547462,0,
00:00:05.84,-0.00695234630256891,0,
00:00:05.844,0.00410075997933745,0,
00:00:05.848,0.00891217216849327,0,
00:00:05.852,-7.23331831977703E-05,0,
00:00:05.856,-0.0103626102209091,0,
00:00:05.86,-0.0022055683657527,0,
00:00:05.864,0.00918611604720354,0,
00:00:05.868,0.000249922479270026,0,
00:00:05.872,-0.00431340746581554,0,
00:00:05.876,0.000257930223597214,0,
00:00:05.88,-0.000844489666633308,0,
00:00:05.884,0.00684188678860664,0,
00:00:05.888,-0.00441773654893041,0,
00:00:05.892,-0.00573904672637582,0,
00:00:05.896,0.00599681911990047,0,
00:00:05.9,0.00604171073064208,0,
00:00:05.904,-0.00672933552414179,0,
00:00:05.908,-0.00493354117497802,0,
00:00:05.912,0.00414998456835747,0,
00:00:05.916,0.00529911508783698,0,
00:00:05.92,-0.00806589797139168,0,
00:00:05.924,-0.00162741413805634,0,
00:00:05.928,0.00681871641427279,0,
00:00:05.932,0.00372856040485203,0,
00:00:05.936,-0.00513228122144938,0,
00:00:05.94,-0.00352749321609735,0,
00:00:05.944,0.00217056460678577,0,
00:00:05.948,0.00643637916073203,0,
00:00:05.952,-0.00327659794129431,0,
00:00:05.956,-0.00810023862868547,0,
00:00:05.96,0.00249568140134215,0,
00:00:05.964,0.0083166379481554,0,
00:00:05.968,-0.00177035690285265,0,
00:00:05.972,-0.00554559007287025,0,
00:00:05.976,-0.00192030321341008,0,
00:00:05.98,0.0058756903745234,0,
00:00:05.984,0.00731499260291457,0,
00:00:05.988,-0.0132162841036916,0,
00:00:05.992,-0.00248209713026881,0,
00:00:05.996,0.00760083645582199,0,
00:00:06,0.00676103355363011,0,
00:00:06.004,-0.00657894741743803,0,
00:00:06.008,-0.00719993561506271,0,
00:00:06.012,0.00580947939306498,0,
00:00:06.016,0.00459245825186372,0,
00:00:06.02,-0.00190828554332256,0,
00:00:06.024,-0.00687358481809497,0,
00:00:06.028,0.00471784267574549,0,
00:00:06.032,0.00361957983113825,0,
00:00:06.036,-0.00225025042891502,0,
00:00:06.04,-0.00460356473922729,0,
00:00:06.044,0.0010769753716886,0,
00:00:06.048,0.0022201961837709,0,
00:00:06.052,0.00341014214791358,0,
00:00:06.056,-0.003958058077842,0,
00:00:06.06,-0.00241416459903121,0,
00:00:06.064,0.00472060730680823,0,
00:00:06.068,0.00226692971773446,0,
00:00:06.072,-0.00541851948946714,0,
00:00:06.076,-0.000884075823705643,0,
00:00:06.08,0.00309359910897911,0,
00:00:06.084,-0.000724546320270747,0,
00:00:06.088,-0.00300856586545706,0,
00:00:06.092,-0.00229130056686699,0,
00:00:06.096,0.0102522633969784,0,
00:00:06.1,0.0022043576464057,0,
00:00:06.104,-0.00538481352850795,0,
00:00:06.108,-0.0129940183833241,0,
00:00:06.112,0.0106606828048825,0,
00:00:06.116,0.00805344246327877,0,
00:00:06.12,-0.0063686859793961,0,
00:00:06.124,-0.00537121435627341,0,
00:00:06.128,0.00354913622140884,0,
00:00:06.132,0.00281594134867191,0,
00:00:06.136,-0.00413260888308287,0,
00:00:06.14,-0.00186418427620083,0,
00:00:06.144,0.00345296668820083,0,
00:00:06.148,0.00690214475616813,0,
00:00:06.152,-0.00351463397964835,0,
00:00:06.156,-0.0086612943559885,0,
00:00:06.16,0.00198039598762989,0,
00:00:06.164,0.00597111228853464,0,
00:00:06.168,0.00434537790715694,0,
00:00:06.172,-0.00978529267013073,0,
00:00:06.176,-0.00287834368646145,0,
00:00:06.18,0.00851280614733696,0,
00:00:06.184,0.00205559539608657,0,
00:00:06.188,-0.00620435178279877,0,
00:00:06.192,-0.005303586833179,0,
00:00:06.196,0.0114295538514853,0,
00:00:06.2,-0.00308160297572613,0,
00:00:06.204,-0.00163495598826557,0,
00:00:06.208,-0.00671408232301474,0,
00:00:06.212,0.0081755043938756,0,
00:00:06.216,0.0074812974780798,0,
00:00:06.22,-0.00684673059731722,0,
00:00:06.224,-0.00599233899265528,0,
00:00:06.228,0.000961084151640534,0,
00:00:06.232,0.00666298624128103,0,
00:00:06.236,-0.000211867270991206,0,
00:00:06.24,-0.00908893533051014,0,
00:00:06.244,-0.000686004175804555,0,
00:00:06.248,0.0101399440318346,0,
00:00:06.252,0.00249575520865619,0,
00:00:06.256,-0.00875167176127434,0,
00:00:06.26,3.11649127979763E-05,0,
00:00:06.264,0.00434540584683418,0,
00:00:06.268,0.00166740792337805,0,
00:00:06.272,-0.00756254605948925,0,
00:00:06.276,-0.000635714328382164,0,
00:00:06.28,0.00920727662742138,0,
00:00:06.284,0.00143950525671244,0,
00:00:06.288,-0.00728338304907084,0,
00:00:06.292,-0.00197953265160322,0,
00:00:06.296,-0.00110542774200439,0,
00:00:06.3,0.00587205681949854,0,
00:00:06.304,0.00101978832390159,0,
00:00:06.308,-0.00310306577011943,0,
00:00:06.312,0.000657119730021805,0,
00:00:06.316,0.00501012988388538,0,
00:00:06.32,-0.00596447801217437,0,
00:00:06.324,-0.00184040248859674,0,
00:00:06.328,-0.00140566448681056,0,
00:00:06.332,0.00556258717551827,0,
00:00:06.336,0.002949811052531,0,
00:00:06.34,-0.00506021827459335,0,
00:00:06.344,-0.000881856423802674,0,
00:00:06.348,0.00493745319545269,0,
00:00:06.352,-0.00506438594311476,0,
00:00:06.356,-0.00288502080366015,0,
00:00:06.36,0.00116989633534104,0,
00:00:06.364,0.00932459440082312,0,
00:00:06.368,0.00290060136467218,0,
00:00:06.372,-0.0120128337293863,0,
00:00:06.376,-0.00412541115656495,0,
00:00:06.38,0.00641315151005983,0,
00:00:06.384,0.00472617568448186,0,
00:00:06.388,-0.00377660430967808,0,
00:00:06.392,-0.00465209735557437,0,
00:00:06.396,0.00858294405043125,0,
00:00:06.4,0.0038900941144675,0,
00:00:06.404,-0.00890639610588551,0,
00:00:06.408,-0.0118529675528407,0,
00:00:06.412,0.0106439115479589,0,
00:00:06.416,0.0133190108463168,0,
00:00:06.42,-0.00664998404681683,0,
00:00:06.424,-0.00750573026016355,0,
00:00:06.428,0.00174131558742374,0,
00:00:06.432,-0.00202090130187571,0,
00:00:06.436,0.00426239566877484,0,
00:00:06.44,-0.00387804699130356,0,
00:00:06.444,0.0052288556471467,0,
00:00:06.448,0.00484823761507869,0,
00:00:06.452,-0.00952228158712387,0,
00:00:06.456,-0.000999299110844731,0,
00:00:06.46,-8.60607324284501E-05,0,
00:00:06.464,0.0081056347116828,0,
00:00:06.468,-0.00144796341191977,0,
00:00:06.472,-0.00537591287866235,0,
00:00:06.476,8.41309447423555E-05,0,
00:00:06.48,0.00372175313532352,0,
00:00:06.484,0.00137722864747047,0,
00:00:06.488,-0.0053356122225523,0,
00:00:06.492,-0.00226191151887178,0,
00:00:06.496,0.00162972195539623,0,
00:00:06.5,0.0114512406289577,0,
00:00:06.504,-0.00552150839939713,0,
00:00:06.508,-0.00591859174892306,0,
00:00:06.512,0.000563787645660341,0,
00:00:06.516,0.00622748117893934,0,
00:00:06.52,-0.00256480160169303,0,
00:00:06.524,-0.00719979917630553,0,
00:00:06.528,0.00307729328051209,0,
00:00:06.532,0.00843403767794371,0,
00:00:06.536,-0.0040660509839654,0,
00:00:06.54,-0.0039004567079246,0,
00:00:06.544,-0.000534312799572945,0,
00:00:06.548,0.010100401006639,0,
00:00:06.552,-0.0036763318348676,0,
00:00:06.556,-0.0094315679743886,0,
00:00:06.56,-0.000423684832639992,0,
00:00:06.564,0.0122965173795819,0,
00:00:06.568,-0.00168487289920449,0,
00:00:06.572,-0.0127337090671062,0,
00:00:06.576,0.00745438784360886,0,
00:00:06.58,0.00879962928593159,0,
00:00:06.584,-0.0033699874766171,0,
00:00:06.588,-0.00729758199304342,0,
00:00:06.592,-0.00283795292489231,0,
00:00:06.596,0.00590755976736546,0,
00:00:06.6,0.00375863933004439,0,
00:00:06.604,-0.00444085896015167,0,
00:00:06.608,-0.00272010662592947,0,
00:00:06.612,0.00269447616301477,0,
00:00:06.616,0.00863533932715654,0,
00:00:06.62,-0.00749962637200952,0,
00:00:06.624,-0.00804239138960838,0,
00:00:06.628,0.00581631530076265,0,
00:00:06.632,0.00726667838171124,0,
00:00:06.636,-0.00528407236561179,0,
00:00:06.64,-0.00406712666153908,0,
00:00:06.644,9.35512216528878E-05,0,
00:00:06.648,0.00881839450448751,0,
00:00:06.652,-0.00120145792607218,0,
00:00:06.656,-0.00148765370249748,0,
00:00:06.66,-0.00847738794982433,0,
00:00:06.664,0.00818297825753689,0,
00:00:06.668,-0.00391854625195265,0,
00:00:06.672,-0.00255003641359508,0,
00:00:06.676,0.00328529952093959,0,
00:00:06.68,0.0031310839112848,0,
00:00:06.684,0.003035185392946,0,
00:00:06.688,-0.00287052639760077,0,
00:00:06.692,-0.00737707875669003,0,
00:00:06.696,0.00666873063892126,0,
00:00:06.7,-0.000307856913423166,0,
00:00:06.704,-0.00377665483392775,0,
00:00:06.708,-0.000979773583821952,0,
00:00:06.712,0.00590558303520083,0,
00:00:06.716,0.00268391333520412,0,
00:00:06.72,-0.0035726260393858,0,
00:00:06.724,-0.00543578062206507,0,
00:00:06.728,0.000919295242056251,0,
00:00:06.732,0.00667005823925138,0,
00:00:06.736,-0.00219185696914792,0,
00:00:06.74,-0.00703640701249242,0,
00:00:06.744,0.000948796921875328,0,
00:00:06.748,0.0102339712902904,0,
00:00:06.752,-0.000531666271854192,0,
00:00:06.756,-0.0058142296038568,0,
00:00:06.76,-0.00304809282533824,0,
00:00:06.764,0.00685281353071332,0,
00:00:06.768,-0.00143431255128235,0,
00:00:06.772,-0.00264832144603133,0,
00:00:06.776,-0.00532294157892466,0,
00:00:06.78,0.00855574756860733,0,
00:00:06.784,0.00261240685358644,0,
00:00:06.788,-0.00799542292952538,0,
00:00:06.792,0.000736470450647175,0,
00:00:06.796,0.00262140296399593,0,
00:00:06.8,0.00571642583236098,0,
00:00:06.804,-0.00394415762275457,0,
00:00:06.808,-0.00835039373487234,0,
00:00:06.812,0.00259008165448904,0,
00:00:06.816,0.00854321662336588,0,
00:00:06.82,-0.00158792641013861,0,
00:00:06.824,-0.0075581856071949,0,
00:00:06.828,0.00208908109925687,0,
00:00:06.832,0.00752926850691438,0,
00:00:06.836,-0.0024325717240572,0,
00:00:06.84,-0.0058414195664227,0,
00:00:06.844,0.000206630720640533,0,
00:00:06.848,0.00413554394617677,0,
00:00:06.852,-0.000311139883706346,0,
00:00:06.856,-0.00317168491892517,0,
00:00:06.86,-0.000639424775727093,0,
00:00:06.864,0.00581953022629023,0,
00:00:06.868,0.00235457811504602,0,
00:00:06.872,-0.00805366411805153,0,
00:00:06.876,0.00248594000004232,0,
00:00:06.88,0.000243506976403296,0,
00:00:06.884,0.00383912795223296,0,
00:00:06.888,-0.00618506595492363,0,
00:00:06.892,-0.00534667074680328,0,
00:00:06.896,0.00963863544166088,0,
00:00:06.9,0.00348837254568934,0,
00:00:06.904,-0.00774839194491506,0,
00:00:06.908,-0.00159621506463736,0,
00:00:06.912,0.00623407959938049,0,
00:00:06.916,0.00296040019020438,0,
00:00:06.92,-0.00357061880640686,0,
00:00:06.924,-0.00767847709357738,0,
00:00:06.928,0.0027220887131989,0,
00:00:06.932,0.00823128037154675,0,
00:00:06.936,-0.00199347757734358,0,
00:00:06.94,-0.00779958534985781,0,
00:00:06.944,0.00208008289337158,0,
00:00:06.948,0.00975497998297215,0,
00:00:06.952,-0.00421968009322882,0,
00:00:06.956,-0.00942510087043047,0,
00:00:06.96,0.00205153808929026,0,
00:00:06.964,0.00867206696420908,0,
00:00:06.968,0.000939060351811349,0,
00:00:06.972,-0.00912643410265446,0,
00:00:06.976,-0.00145418627653271,0,
00:00:06.98,0.00927144382148981,0,
00:00:06.984,0.00195065548177809,0,
00:00:06.988,-0.00886477902531624,0,
00:00:06.992,-0.00185074168257415,0,
00:00:06.996,0.00661403499543667,0,
00:00:07,0.00353646394796669,0,
00:00:07.004,-0.00521833403035998,0,
00:00:07.008,-0.00348070613108575,0,
00:00:07.012,0.00230154278688133,0,
00:00:07.016,0.00865224655717611,0,
00:00:07.02,-0.00515826046466827,0,
00:00:07.024,-0.00971211865544319,0,
00:00:07.028,0.0023002908565104,0,
00:00:07.032,0.0070452825166285,0,
00:00:07.036,-0.000876588397659361,0,
00:00:07.04,0.000761918083298951,0,
00:00:07.044,8.16846804809757E-05,0,
00:00:07.048,-0.00284957326948643,0,
00:00:07.052,0.00302720791660249,0,
00:00:07.056,-0.00311765586957335,0,
00:00:07.06,0.000328424473991618,0,
00:00:07.064,0.00500707980245352,0,
00:00:07.068,-0.00148953357711434,0,
00:00:07.072,-0.009529834613204,0,
00:00:07.076,-0.000448291393695399,0,
00:00:07.08,0.0085814893245697,0,
00:00:07.084,0.00491621578112245,0,
00:00:07.088,-0.00483077857643366,0,
00:00:07.092,-0.00387330749072134,0,
00:00:07.096,0.00367982359603047,0,
00:00:07.1,0.00401702942326665,0,
00:00:07.104,-0.00717083411291242,0,
00:00:07.108,-0.00416746782138944,0,
00:00:07.112,0.00525326281785965,0,
00:00:07.116,0.00606928765773773,0,
00:00:07.12,-0.0057869590818882,0,
00:00:07.124,-0.00384270818904042,0,
00:00:07.128,0.00476827519014478,0,
00:00:07.132,0.00321448035538197,0,
00:00:07.136,-0.00444227457046509,0,
00:00:07.14,-0.00247989688068628,0,
00:00:07.144,0.00291337794624269,0,
00:00:07.148,0.00663608917966485,0,
00:00:07.152,-0.00350679457187653,0,
00:00:07.156,-0.00642055738717318,0,
00:00:07.16,-0.00188436731696129,0,
00:00:07.164,0.00642344122752547,0,
00:00:07.168,0.00376330222934484,0,
00:00:07.172,-0.0047508142888546,0,
00:00:07.176,-0.00100974820088595,0,
00:00:07.18,0.000477214023703709,0,
00:00:07.184,0.00485182087868452,0,
00:00:07.188,-0.0056354166008532,0,
00:00:07.192,-0.00544275902211666,0,
00:00:07.196,0.00711528863757849,0,
00:00:07.2,0.00709637207910419,0,
00:00:07.204,-0.00623678183183074,0,
00:00:07.208,-0.00503093656152487,0,
00:00:07.212,0.00164544978179038,0,
00:00:07.216,0.00682207569479942,0,
00:00:07.22,-0.00462608272209764,0,
00:00:07.224,-0.00348466378636658,0,
00:00:07.228,0.000276136648608372,0,
00:00:07.232,0.0107687935233116,0,
00:00:07.236,-0.00340079655870795,0,
00:00:07.24,-0.00951882172375917,0,
00:00:07.244,0.00138214428443462,0,
00:00:07.248,0.00590494694188237,0,
00:00:07.252,0.00254996190778911,0,
00:00:07.256,-0.00539320753887296,0,
00:00:07.26,-0.000926738197449595,0,
00:00:07.264,0.00302509218454361,0,
00:00:07.268,0.00127201445866376,0,
00:00:07.272,-0.00713247945532203,0,
00:00:07.276,0.00214231293648481,0,
00:00:07.28,0.0077428319491446,0,
00:00:07.284,-6.08807822572999E-05,0,
00:00:07.288,-0.0076183439232409,0,
00:00:07.292,-0.00348970876075327,0,
00:00:07.296,0.00581583892926574,0,
00:00:07.3,0.00408443063497543,0,
00:00:07.304,-0.00199652067385614,0,
00:00:07.308,-0.00452645681798458,0,
00:00:07.312,0.00306251994334161,0,
00:00:07.316,0.00420689629390836,0,
00:00:07.32,-0.00860501825809479,0,
00:00:07.324,-0.00370037369430065,0,
00:00:07.328,0.00908136274665594,0,
00:00:07.332,0.00775173678994179,0,
00:00:07.336,-0.0026095116045326,0,
00:00:07.34,-0.0141052398830652,0,
00:00:07.344,-0.000535492785274982,0,
00:00:07.348,0.0114404885098338,0,
00:00:07.352,0.00334912142716348,0,
00:00:07.356,-0.00654486892744899,0,
00:00:07.36,-0.00432549091055989,0,
00:00:07.364,0.00430792802944779,0,
00:00:07.368,0.00292586348950863,0,
00:00:07.372,-0.000312000629492104,0,
00:00:07.376,-0.0103907557204366,0,
00:00:07.38,0.00592166837304831,0,
00:00:07.384,0.00572870019823313,0,
00:00:07.388,-0.00310930237174034,0,
00:00:07.392,-0.0026153854560107,0,
00:00:07.396,0.0040719211101532,0,
00:00:07.4,-0.000408218736993149,0,
00:00:07.404,-0.00374540756456554,0,
00:00:07.408,0.00076176761649549,0,
00:00:07.412,0.00137569906655699,0,
00:00:07.416,0.00476550031453371,0,
00:00:07.42,-0.00621334090828896,0,
00:00:07.424,-0.00599785521626472,0,
00:00:07.428,0.00893257092684507,0,
00:00:07.432,0.00309730810113251,0,
00:00:07.436,-0.00567903742194176,0,
00:00:07.44,-0.00333114666864276,0,
00:00:07.444,0.00488327676430345,0,
00:00:07.448,0.00298365624621511,0,
00:00:07.452,-0.00266506569460034,0,
00:00:07.456,-0.00461906427517533,0,
00:00:07.46,-0.000785909360274673,0,
00:00:07.464,0.008570889942348,0,
00:00:07.468,0.00121038244105875,0,
00:00:07.472,-0.0112373074516654,0,
00:00:07.476,-0.00183177401777357,0,
00:00:07.48,0.0146871684119105,0,
00:00:07.484,0.00167337420862168,0,
00:00:07.488,-0.011121722869575,0,
00:00:07.492,-0.00167596130631864,0,
00:00:07.496,0.00189563888125122,0,
00:00:07.5,0.0063504665158689,0,
00:00:07.504,-0.00486037973314524,0,
00:00:07.508,-0.00541780143976212,0,
00:00:07.512,0.00672478135675192,0,
00:00:07.516,0.00458378903567791,0,
00:00:07.52,-0.00451950309798121,0,
00:00:07.524,-0.00342180673032999,0,
00:00:07.528,0.00401576096192002,0,
00:00:07.532,0.00416092295199633,0,
00:00:07.536,-0.00510674482211471,0,
00:00:07.54,-0.00830414146184921,0,
00:00:07.544,0.00134958187118173,0,
00:00:07.548,0.0114395124837756,0,
00:00:07.552,0.000591506075579673,0,
00:00:07.556,-0.00732913054525852,0,
00:00:07.56,-0.00110202375799417,0,
00:00:07.564,0.00812198407948017,0,
00:00:07.568,0.000399547861889005,0,
00:00:07.572,-0.00781034538522363,0,
00:00:07.576,0.000144426812767051,0,
00:00:07.58,-0.00475808046758175,0,
00:00:07.584,0.00665740808472037,0,
00:00:07.588,0.000708264589775354,0,
00:00:07.592,-2.21853006223682E-05,0,
00:00:07.596,0.00656143482774496,0,
00:00:07.6,0.00070411351043731,0,
00:00:07.604,-0.0149046387523413,0,
00:00:07.608,0.000294576631858945,0,
00:00:07.612,0.00490789301693439,0,
00:00:07.616,0.00605917209759355,0,
00:00:07.62,-0.000661907019093633,0,
00:00:07.624,-0.00456264242529869,0,
00:00:07.628,0.00011922112753382,0,
00:00:07.632,0.0031802833545953,0,
00:00:07.636,-0.00341527722775936,0,
00:00:07.64,-0.00178024219349027,0,
00:00:07.644,0.00511625176295638,0,
00:00:07.648,0.00236477819271386,0,
00:00:07.652,-0.00344646675512195,0,
00:00:07.656,-0.00717755686491728,0,
00:00:07.66,0.0032006676774472,0,
00:00:07.664,0.00638880440965295,0,
00:00:07.668,-4.61036652268376E-05,0,
00:00:07.672,-0.00426021125167608,0,
00:00:07.676,0.00216304790228605,0,
00:00:07.68,-0.00105486263055354,0,
00:00:07.684,0.000906964705791324,0,
00:00:07.688,-0.0022490241099149,0,
00:00:07.692,-0.00323596294037998,0,
00:00:07.696,0.00666536064818501,0,
00:00:07.7,0.00112784618977457,0,
00:00:07.704,-0.00805012602359056,0,
00:00:07.708,-0.000471050589112565,0,
00:00:07.712,0.00556336296722293,0,
00:00:07.716,0.00581628270447254,0,
00:00:07.72,-0.00179256033152342,0,
00:00:07.724,-0.00581763265654445,0,
00:00:07.728,-0.000645432446617633,0,
00:00:07.732,0.00514848902821541,0,
00:00:07.736,-0.00295991543680429,0,
00:00:07.74,-0.00490553257986903,0,
00:00:07.744,0.00159221689682454,0,
00:00:07.748,0.00722673628479242,0,
00:00:07.752,-0.0019567331764847,0,
00:00:07.756,-0.00712336460128427,0,
00:00:07.76,0.00276036281138659,0,
00:00:07.764,0.00798825640231371,0,
00:00:07.768,-0.00233995309099555,0,
00:00:07.772,-0.00602907827124,0,
00:00:07.776,-0.00215339567512274,0,
00:00:07.78,0.00796205271035433,0,
00:00:07.784,0.00133579783141613,0,
00:00:07.788,-0.00866758450865746,0,
00:00:07.792,-0.00124682008754462,0,
00:00:07.796,0.00717924628406763,0,
00:00:07.8,0.00589298410341144,0,
00:00:07.804,-0.00721302209421992,0,
00:00:07.808,-0.00531676178798079,0,
00:00:07.812,0.00190799182746559,0,
00:00:07.816,0.00728090759366751,0,
00:00:07.82,-0.00218906858935952,0,
00:00:07.824,-0.00739782536402345,0,
00:00:07.828,0.00470265466719866,0,
00:00:07.832,0.00605607405304909,0,
00:00:07.836,-0.00383192673325539,0,
00:00:07.84,-0.00812225509434938,0,
00:00:07.844,0.00284238695167005,0,
00:00:07.848,0.00660716462880373,0,
00:00:07.852,0.000372648471966386,0,
00:00:07.856,-0.00603632908314466,0,
00:00:07.86,0.00212319777347147,0,
00:00:07.864,0.00658519193530083,0,
00:00:07.868,-0.00349665735848248,0,
00:00:07.872,-0.00645600538700819,0,
00:00:07.876,-0.00191142223775387,0,
00:00:07.88,0.00644794385880232,0,
00:00:07.884,0.00383425154723227,0,
00:00:07.888,-0.0067428913898766,0,
00:00:07.892,-0.00312246847897768,0,
00:00:07.896,0.0123254749923944,0,
00:00:07.9,0.00238397507928312,0,
00:00:07.904,-0.0131454579532146,0,
00:00:07.908,-0.00465650856494904,0,
00:00:07.912,0.00246035889722407,0,
00:00:07.916,0.0133955217897892,0,
00:00:07.92,0.00231341179460287,0,
00:00:07.924,-0.0194704253226519,0,
00:00:07.928,-0.000774241518229246,0,
00:00:07.932,0.017714336514473,0,
00:00:07.936,0.00556663190945983,0,
00:00:07.94,-0.0130379293113947,0,
00:00:07.944,-0.0043149939738214,0,
00:00:07.948,0.00266671949066222,0,
00:00:07.952,0.000399593292968348,0,
00:00:07.956,-0.00160082161892205,0,
00:00:07.96,0.00279122940264642,0,
00:00:07.964,0.00447585340589285,0,
00:00:07.968,0.00479808403179049,0,
00:00:07.972,-0.0126266647130251,0,
00:00:07.976,-0.00873332563787699,0,
00:00:07.98,0.0126827014610171,0,
00:00:07.984,0.00456753373146057,0,
00:00:07.988,-0.000491300888825208,0,
00:00:07.992,-0.00664845295250416,0,
00:00:07.996,0.00579620711505413,0,
00:00:08,0.00237427884712815,0,
00:00:08.004,-0.00887345243245363,0,
00:00:08.008,-0.00675969151780009,0,
00:00:08.012,0.00774252228438854,0,
00:00:08.016,0.00859937630593777,0,
00:00:08.02,-0.00491729751229286,0,
00:00:08.024,-0.00443213758990169,0,
00:00:08.028,-0.000540543464012444,0,
00:00:08.032,0.0103790583088994,0,
00:00:08.036,-0.00339797092601657,0,
00:00:08.04,-0.00930946599692106,0,
00:00:08.044,0.00368416146375239,0,
00:00:08.048,0.00406098971143365,0,
00:00:08.052,0.000923762971069664,0,
00:00:08.056,-0.00770606892183423,0,
00:00:08.06,-0.000263639201875776,0,
00:00:08.064,0.00968936644494534,0,
00:00:08.068,0.00172735867090523,0,
00:00:08.072,-0.00934740621596575,0,
00:00:08.076,-0.000182080300874077,0,
00:00:08.08,0.00446391943842173,0,
00:00:08.084,0.00193797843530774,0,
00:00:08.088,-0.00523921195417643,0,
00:00:08.092,-0.00248147081583738,0,
00:00:08.096,0.0013434529537335,0,
00:00:08.1,0.00919503718614578,0,
00:00:08.104,-0.00149722350761294,0,
00:00:08.108,-0.00824536010622978,0,
00:00:08.112,0.00326436804607511,0,
00:00:08.116,0.00288436631672084,0,
00:00:08.12,-0.00220672995783389,0,
00:00:08.124,-0.00619271257892251,0,
00:00:08.128,0.00358509179204702,0,
00:00:08.132,0.00833976455032825,0,
00:00:08.136,-0.00445358036085963,0,
00:00:08.14,-0.0042559327557683,0,
00:00:08.144,-0.000689351290930063,0,
00:00:08.148,0.00807094667106867,0,
00:00:08.152,-0.00154767709318548,0,
00:00:08.156,-0.00555948074907064,0,
00:00:08.16,-0.00213171704672277,0,
00:00:08.164,0.00775058148428798,0,
00:00:08.168,0.00112579797860235,0,
00:00:08.172,-0.00875313673168421,0,
00:00:08.176,-0.00120360916480422,0,
00:00:08.18,0.00936464313417673,0,
00:00:08.184,0.00194754870608449,0,
00:00:08.188,-0.00682011060416698,0,
00:00:08.192,-0.00384414452128112,0,
00:00:08.196,0.00705333380028605,0,
00:00:08.2,0.00140486238524318,0,
00:00:08.204,-0.0059954128228128,0,
00:00:08.208,-0.00469185877591372,0,
00:00:08.212,0.00782925821840763,0,
00:00:08.216,0.00734808901324868,0,
00:00:08.22,-0.00640120636671782,0,
00:00:08.224,-0.00744737219065428,0,
00:00:08.228,0.00332874711602926,0,
00:00:08.232,0.0083315521478653,0,
00:00:08.236,-0.00235185655765235,0,
00:00:08.24,-0.00827412493526936,0,
00:00:08.244,0.00176666746847332,0,
00:00:08.248,0.00761758768931031,0,
00:00:08.252,-0.00211742729879916,0,
00:00:08.256,-0.00551653793081641,0,
00:00:08.26,-0.00167253229301423,0,
00:00:08.264,0.0061502056196332,0,
00:00:08.268,0.00541362073272467,0,
00:00:08.272,-0.00912348181009293,0,
00:00:08.276,-0.00286901765502989,0,
00:00:08.28,0.0081252483651042,0,
00:00:08.284,0.00162170722614974,0,
00:00:08.288,-0.00645917793735862,0,
00:00:08.292,-0.00325513118878007,0,
00:00:08.296,0.00542757799848914,0,
00:00:08.3,0.00561827048659325,0,
00:00:08.304,-0.00641173357143998,0,
00:00:08.308,-0.00842712260782719,0,
00:00:08.312,0.0106828967109323,0,
00:00:08.316,0.00673777237534523,0,
00:00:08.32,-0.00747184455394745,0,
00:00:08.324,-0.00579172698780894,0,
00:00:08.328,0.00161140377167612,0,
00:00:08.332,0.00515862694010139,0,
00:00:08.336,0.00197548372671008,0,
00:00:08.34,-0.00758258905261755,0,
00:00:08.344,0.00125980982556939,0,
00:00:08.348,0.00703359907492995,0,
00:00:08.352,-0.00240888493135571,0,
00:00:08.356,-0.00760140456259251,0,
00:00:08.36,0.00250656763091683,0,
00:00:08.364,0.00802048202604055,0,
00:00:08.368,-0.00212100404314697,0,
00:00:08.372,-0.00577556760981679,0,
00:00:08.376,-0.00197872868739069,0,
00:00:08.38,0.00594421895220876,0,
00:00:08.384,0.00327764288522303,0,
00:00:08.388,-0.00502177653834224,0,
00:00:08.392,-0.00310862250626087,0,
00:00:08.396,0.00673895003274083,0,
00:00:08.4,-0.00143763341475278,0,
00:00:08.404,-0.00467290310189128,0,
00:00:08.408,-0.0012419685954228,0,
00:00:08.412,0.0061259726062417,0,
00:00:08.416,0.00514155393466353,0,
00:00:08.42,-0.00525879021733999,0,
00:00:08.424,-0.00905763171613216,0,
00:00:08.428,0.00472714332863688,0,
00:00:08.432,0.00496730161830783,0,
00:00:08.436,-0.00077440106542781,0,
00:00:08.44,-0.00584356393665075,0,
00:00:08.444,0.00309939635917544,0,
00:00:08.448,0.00754824047908187,0,
00:00:08.452,-0.00302002998068929,0,
00:00:08.456,-0.0085907606408,0,
00:00:08.46,0.00176601205021143,0,
00:00:08.464,0.00777976121753454,0,
00:00:08.468,0.000131992681417614,0,
00:00:08.472,-0.00946946442127228,0,
00:00:08.476,-0.00133097928483039,0,
00:00:08.48,0.0117174061015248,0,
00:00:08.484,-0.00380699476227164,0,
00:00:08.488,-0.00634006643667817,0,
00:00:08.492,0.00336814043112099,0,
00:00:08.496,0.00782728474587202,0,
00:00:08.5,-0.000856775615829974,0,
00:00:08.504,-0.0106251845136285,0,
00:00:08.508,-0.00205103680491447,0,
00:00:08.512,0.00743956305086613,0,
00:00:08.516,0.00666442466899753,0,
00:00:08.52,-0.00648372760042548,0,
00:00:08.524,-0.0049341251142323,0,
00:00:08.528,-0.000157873437274247,0,
00:00:08.532,0.00904084928333759,0,
00:00:08.536,-0.000803114438895136,0,
00:00:08.54,-0.00739130144938827,0,
00:00:08.544,0.00381247117184103,0,
00:00:08.548,0.00507328705862165,0,
00:00:08.552,-0.00438293535262346,0,
00:00:08.556,-0.00606244895607233,0,
00:00:08.56,0.0011974317021668,0,
00:00:08.564,0.00536954728886485,0,
00:00:08.568,0.00255140638910234,0,
00:00:08.572,-0.00500382110476494,0,
00:00:08.576,-0.00260215671733022,0,
00:00:08.58,0.0051749786362052,0,
00:00:08.584,0.0049145151861012,0,
00:00:08.588,-0.00914457906037569,0,
00:00:08.592,-0.00470941001549363,0,
00:00:08.596,0.0103594921529293,0,
00:00:08.6,0.00340980524197221,0,
00:00:08.604,-0.00627288362011313,0,
00:00:08.608,-0.00417631445452571,0,
00:00:08.612,0.00430238852277398,0,
00:00:08.616,0.00492036761716008,0,
00:00:08.62,-0.00859003979712725,0,
00:00:08.624,-0.00198395713232458,0,
00:00:08.628,0.00466153677552938,0,
00:00:08.632,0.00790936406701803,0,
00:00:08.636,-0.00318413483910263,0,
00:00:08.64,-0.00887797866016626,0,
00:00:08.644,0.00155677576549351,0,
00:00:08.648,0.00770420115441084,0,
00:00:08.652,-0.00191631668712944,0,
00:00:08.656,-0.00742459995672107,0,
00:00:08.66,0.000371349364286289,0,
00:00:08.664,0.00984551571309567,0,
00:00:08.668,0.00147191679570824,0,
00:00:08.672,-0.00969846826046705,0,
00:00:08.676,-0.000392163870856166,0,
00:00:08.68,0.00445973686873913,0,
00:00:08.684,0.00207529170438647,0,
00:00:08.688,-0.00506838643923402,0,
00:00:08.692,-0.00236006337217987,0,
00:00:08.696,0.00553707033395767,0,
00:00:08.7,0.00314673408865929,0,
00:00:08.704,-0.00493154255673289,0,
00:00:08.708,-0.0029510366730392,0,
00:00:08.712,0.00477096112444997,0,
00:00:08.716,0.00263187056407332,0,
00:00:08.72,-0.00505559891462326,0,
00:00:08.724,-0.002778499154374,0,
00:00:08.728,0.00505090318620205,0,
00:00:08.732,0.00285825622268021,0,
00:00:08.736,-0.00288034835830331,0,
00:00:08.74,-0.00684648333117366,0,
00:00:08.744,0.00115510972682387,0,
00:00:08.748,0.010270019993186,0,
00:00:08.752,0.00147723674308509,0,
00:00:08.756,-0.00785651803016663,0,
00:00:08.76,-0.00470309797674418,0,
00:00:08.764,0.00463970750570297,0,
00:00:08.768,0.00352115393616259,0,
00:00:08.772,-0.00605375319719315,0,
00:00:08.776,-0.000105628976598382,0,
00:00:08.78,0.0089259184896946,0,
00:00:08.784,0.000823306851089001,0,
00:00:08.788,-0.00988709833472967,0,
00:00:08.792,-0.00024067323829513,0,
00:00:08.796,0.004731060937047,0,
00:00:08.8,0.0022898749448359,0,
00:00:08.804,-0.0049851848743856,0,
00:00:08.808,-0.00239250366576016,0,
00:00:08.812,0.00544955069199204,0,
00:00:08.816,0.00513983145356178,0,
00:00:08.82,-0.0069513781927526,0,
00:00:08.824,-0.00667196372523904,0,
00:00:08.828,0.0065917014144361,0,
00:00:08.832,0.0072202030569315,0,
00:00:08.836,-0.00580728286877275,0,
00:00:08.84,-0.00462703686207533,0,
00:00:08.844,-0.000228192293434404,0,
00:00:08.848,0.00878731068223715,0,
00:00:08.852,-0.00104174658190459,0,
00:00:08.856,-0.00958438869565725,0,
00:00:08.86,0.00372211332432926,0,
00:00:08.864,0.00877406541258097,0,
00:00:08.868,-0.000396175251808017,0,
00:00:08.872,-0.0107212821021676,0,
00:00:08.876,-0.00240202248096466,0,
00:00:08.88,0.00713331624865532,0,
00:00:08.884,0.00447192834690213,0,
00:00:08.888,-0.00444541731849313,0,
00:00:08.892,-0.00314149213954806,0,
00:00:08.896,0.00431218510493636,0,
00:00:08.9,0.00432453490793705,0,
00:00:08.904,-0.0092595387250185,0,
00:00:08.908,-0.00238656066358089,0,
00:00:08.912,0.00667820638045669,0,
00:00:08.916,0.00610908586531878,0,
00:00:08.92,-0.00666138157248497,0,
00:00:08.924,-0.00690252939239144,0,
00:00:08.928,0.00618189433589578,0,
00:00:08.932,0.00690468121320009,0,
00:00:08.936,-0.00591740990057588,0,
00:00:08.94,-0.00456178560853004,0,
00:00:08.944,0.0019911655690521,0,
00:00:08.948,0.00694129383191466,0,
00:00:08.952,-0.0046935835853219,0,
00:00:08.956,-0.00570956338196993,0,
00:00:08.96,0.00626964308321476,0,
00:00:08.964,0.00631733611226082,0,
00:00:08.968,-0.00453205592930317,0,
00:00:08.972,-0.00695804227143526,0,
00:00:08.976,-0.00386417703703046,0,
00:00:08.98,0.01090082898736,0,
00:00:08.984,0.00384092354215682,0,
00:00:08.988,-0.00601338967680931,0,
00:00:08.992,-0.00412653340026736,0,
00:00:08.996,0.0041924687102437,0,
00:00:09,0.00267401011660695,0,
00:00:09.004,-0.00468111783266068,0,
00:00:09.008,-0.0023868721909821,0,
00:00:09.012,0.0052725444547832,0,
00:00:09.016,0.00287843192927539,0,
00:00:09.02,-0.00299012335017323,0,
00:00:09.024,-0.0069866543635726,0,
00:00:09.028,0.00520832696929574,0,
00:00:09.032,0.00421176571398973,0,
00:00:09.036,-0.001886599464342,0,
00:00:09.04,-0.0066264602355659,0,
00:00:09.044,0.00288962223567069,0,
00:00:09.048,0.00571394851431251,0,
00:00:09.052,0.00144597992766649,0,
00:00:09.056,-0.00857995823025703,0,
00:00:09.06,-0.00161755457520485,0,
00:00:09.064,0.0087164705619216,0,
00:00:09.068,0.00147557316813618,0,
00:00:09.072,-0.00901557970792055,0,
00:00:09.076,0.000378418772015721,0,
00:00:09.08,0.00493199331685901,0,
00:00:09.084,0.00423303013667464,0,
00:00:09.088,-0.0113841705024242,0,
00:00:09.092,-0.000321313709719107,0,
00:00:09.096,0.0105169899761677,0,
00:00:09.1,0.00229100161232054,0,
00:00:09.104,-0.00927793979644775,0,
00:00:09.108,-0.00249851425178349,0,
00:00:09.112,0.00615037977695465,0,
00:00:09.116,0.00548746297135949,0,
00:00:09.12,-0.00704774167388678,0,
00:00:09.124,-0.00487152161076665,0,
00:00:09.128,0.00233379495330155,0,
00:00:09.132,0.00751580437645316,0,
00:00:09.136,-0.00424131564795971,0,
00:00:09.14,-0.00345661188475788,0,
00:00:09.144,0.00215287925675511,0,
00:00:09.148,0.0064680241048336,0,
00:00:09.152,-0.00324106612242758,0,
00:00:09.156,-0.00810891110450029,0,
00:00:09.16,0.000363785424269736,0,
00:00:09.164,0.00814083870500326,0,
00:00:09.168,0.0038603488355875,0,
00:00:09.172,-0.0057337349280715,0,
00:00:09.176,-0.00215417449362576,0,
00:00:09.18,0.00186887104064226,0,
00:00:09.184,0.000725296791642904,0,
00:00:09.188,-0.00496263615787029,0,
00:00:09.192,-0.00145221780985594,0,
00:00:09.196,0.00648680422455072,0,
00:00:09.2,0.00575639866292477,0,
00:00:09.204,-0.0068660550750792,0,
00:00:09.208,-0.00694500189274549,0,
00:00:09.212,0.00622110487893224,0,
00:00:09.216,0.00487374328076839,0,
00:00:09.22,-0.00392873166128993,0,
00:00:09.224,-0.00293870130553842,0,
00:00:09.228,0.00213469355367124,0,
00:00:09.232,0.00606937939301133,0,
00:00:09.236,-0.00573586160317063,0,
00:00:09.24,-0.00426432676613331,0,
00:00:09.244,0.00214546965435147,0,
00:00:09.248,0.00488577829673886,0,
00:00:09.252,0.00139945058617741,0,
00:00:09.256,-0.00596747826784849,0,
00:00:09.26,-0.00295780971646309,0,
00:00:09.264,0.00538367731496692,0,
00:00:09.268,0.00331895565614104,0,
00:00:09.272,-0.00464555574581027,0,
00:00:09.276,-0.00272372690960765,0,
00:00:09.28,0.00486480677500367,0,
00:00:09.284,0.00260653672739863,0,
00:00:09.288,-0.00514013832435012,0,
00:00:09.292,-0.00286151422187686,0,
00:00:09.296,0.00500437989830971,0,
00:00:09.3,0.00285304244607687,0,
00:00:09.304,-0.00493494421243668,0,
00:00:09.308,-0.00276785460300744,0,
00:00:09.312,0.00499280449002981,0,
00:00:09.316,0.00486070336773992,0,
00:00:09.32,-0.00698221987113357,0,
00:00:09.324,-0.00445321528241038,0,
00:00:09.328,0.00273200194351375,0,
00:00:09.332,0.00561907840892673,0,
00:00:09.336,-0.000238179884036072,0,
00:00:09.34,-0.00396143551915884,0,
00:00:09.344,0.000512492086272687,0,
00:00:09.348,0.00534383580088615,0,
00:00:09.352,-0.00136895559262484,0,
00:00:09.356,-0.00757216429337859,0,
00:00:09.36,-0.00472415471449494,0,
00:00:09.364,0.0107976831495762,0,
00:00:09.368,0.00224072276614606,0,
00:00:09.372,-0.00346593419089913,0,
00:00:09.376,-8.01337009761482E-05,0,
00:00:09.38,0.00447496771812439,0,
00:00:09.384,-0.00199597491882741,0,
00:00:09.388,-0.0098610008135438,0,
00:00:09.392,-0.000556440674699843,0,
00:00:09.396,0.0107194827869534,0,
00:00:09.4,0.00307509023696184,0,
00:00:09.404,-0.0063535301014781,0,
00:00:09.408,-0.00606601173058152,0,
00:00:09.412,0.00649811793118715,0,
00:00:09.416,0.00457636034116149,0,
00:00:09.42,-0.00442782090976834,0,
00:00:09.424,-0.00538809737190604,0,
00:00:09.428,0.00607053702697158,0,
00:00:09.432,0.00583677599206567,0,
00:00:09.436,-0.00493319053202868,0,
00:00:09.44,-0.0070927538909018,0,
00:00:09.444,-0.00375110772438347,0,
00:00:09.448,0.0111299669370055,0,
00:00:09.452,0.0040494566783309,0,
00:00:09.456,-0.00797782558947802,0,
00:00:09.46,-6.70297013130039E-05,0,
00:00:09.464,0.00380431767553091,0,
00:00:09.468,0.00114079425111413,0,
00:00:09.472,-0.00782342255115509,0,
00:00:09.476,0.00146515923552215,0,
00:00:09.48,0.0053472607396543,0,
00:00:09.484,-9.25667627598159E-05,0,
00:00:09.488,-0.00370996887795627,0,
00:00:09.492,-0.00136223610024899,0,
00:00:09.496,0.00534179154783487,0,
00:00:09.5,0.00225728726945817,0,
00:00:09.504,-0.00579195655882359,0,
00:00:09.508,-0.00335952267050743,0,
00:00:09.512,0.00484869442880154,0,
00:00:09.516,0.00298734311945736,0,
00:00:09.52,-0.00467693386599422,0,
00:00:09.524,-0.00254293764010072,0,
00:00:09.528,0.00510390754789114,0,
00:00:09.532,0.00278244912624359,0,
00:00:09.536,-0.00299880350939929,0,
00:00:09.54,-0.00693905213847756,0,
00:00:09.544,0.00526892719790339,0,
00:00:09.548,0.00425407337024808,0,
00:00:09.552,-0.00187316059600562,0,
00:00:09.556,-0.00455992529168725,0,
00:00:09.56,-0.00118004705291241,0,
00:00:09.564,0.00810694880783558,0,
00:00:09.568,0.000927957473322749,0,
00:00:09.572,-0.00920174084603786,0,
00:00:09.576,0.000471151462988928,0,
00:00:09.58,0.00511660194024444,0,
00:00:09.584,0.00229105772450566,0,
00:00:09.588,-0.00730191450566053,0,
00:00:09.592,-0.000704989884980023,0,
00:00:09.596,0.00897176191210747,0,
00:00:09.6,0.00120647496078163,0,
00:00:09.604,-0.00949125736951828,0,
00:00:09.608,-2.07542179850861E-05,0,
00:00:09.612,0.00267047714442015,0,
00:00:09.616,0.00622632727026939,0,
00:00:09.62,-0.00546135241165757,0,
00:00:09.624,-0.00395610695704818,0,
00:00:09.628,0.00232348870486021,0,
00:00:09.632,0.00695265643298626,0,
00:00:09.636,-0.00486852321773767,0,
00:00:09.64,-0.00383278937079012,0,
00:00:09.644,0.00209822854958475,0,
00:00:09.648,0.00455653993412852,0,
00:00:09.652,-0.00104029150679708,0,
00:00:09.656,-0.00422509573400021,0,
00:00:09.66,0.000701812095940113,0,
00:00:09.664,0.00365377543494105,0,
00:00:09.668,0.00094711035490036,0,
00:00:09.672,-0.00991126615554094,0,
00:00:09.676,0.00355346174910665,0,
00:00:09.68,0.0091870091855526,0,
00:00:09.684,-0.00183312024455518,0,
00:00:09.688,-0.0082868430763483,0,
00:00:09.692,-0.000650812697131187,0,
00:00:09.696,0.00920963007956743,0,
00:00:09.7,0.00136636721435934,0,
00:00:09.704,-0.00735397124662995,0,
00:00:09.708,-0.00406137062236667,0,
00:00:09.712,0.00715729780495167,0,
00:00:09.716,0.00167672254610807,0,
00:00:09.72,-0.00365390256047249,0,
00:00:09.724,-0.00443783868104219,0,
00:00:09.728,8.44953610794619E-05,0,
00:00:09.732,0.0094184372574091,0,
00:00:09.736,-0.000460377254057676,0,
00:00:09.74,-0.00726038729771972,0,
00:00:09.744,0.00163713051006198,0,
00:00:09.748,0.00682200444862247,0,
00:00:09.752,-0.00296439859084785,0,
00:00:09.756,-0.00809680111706257,0,
00:00:09.76,0.0022996908519417,0,
00:00:09.764,0.00810233876109123,0,
00:00:09.768,-0.00188677583355457,0,
00:00:09.772,-0.00554317096248269,0,
00:00:09.776,-0.00184279819950461,0,
00:00:09.78,0.00596712436527014,0,
00:00:09.784,0.00322520057670772,0,
00:00:09.788,-0.0071714106015861,0,
00:00:09.792,0.000887807691469789,0,
00:00:09.796,0.00430987402796745,0,
00:00:09.8,0.00115727738011628,0,
00:00:09.804,-0.00600409088656306,0,
00:00:09.808,-0.00494755618274212,0,
00:00:09.812,0.00748901255428791,0,
00:00:09.816,0.00714788306504488,0,
00:00:09.82,-0.00638357223942876,0,
00:00:09.824,-0.00519928615540266,0,
00:00:09.828,0.0036378325894475,0,
00:00:09.832,0.00486434856429696,0,
00:00:09.836,-0.00619087787345052,0,
00:00:09.84,-0.00565473968163133,0,
00:00:09.844,0.00522193871438503,0,
00:00:09.848,0.00939954165369272,0,
00:00:09.852,-0.00227611442096531,0,
00:00:09.856,-0.0067649488337338,0,
00:00:09.86,-0.0029982237610966,0,
00:00:09.864,0.00745093869045377,0,
00:00:09.868,-0.000815134611912072,0,
00:00:09.872,-0.00646896846592426,0,
00:00:09.876,0.00277814222499728,0,
00:00:09.88,0.00560734793543816,0,
00:00:09.884,0.00141507817897946,0,
00:00:09.888,-0.00647910637781024,0,
00:00:09.892,-0.00355333439074457,0,
00:00:09.896,0.00502332765609026,0,
00:00:09.9,0.00327526940964162,0,
00:00:09.904,-0.00446994556114078,0,
00:00:09.908,-0.00456286082044244,0,
00:00:09.912,0.00701470719650388,0,
00:00:09.916,0.00638927007094026,0,
00:00:09.92,-0.00696495873853564,0,
00:00:09.924,-0.00541476532816887,0,
00:00:09.928,0.0037361232098192,0,
00:00:09.932,0.00303176743909717,0,
00:00:09.936,-0.00399046018719673,0,
00:00:09.94,-0.00389425200410187,0,
00:00:09.944,0.00748014729470015,0,
00:00:09.948,0.00651847338303924,0,
00:00:09.952,-0.00709753204137087,0,
00:00:09.956,-0.0077239372767508,0,
00:00:09.96,0.00344156310893595,0,
00:00:09.964,0.00863642804324627,0,
00:00:09.968,-0.0020598357077688,0,
00:00:09.972,-0.00603699730709195,0,
00:00:09.976,-0.000192299150512554,0,
00:00:09.98,0.00382444192655385,0,
00:00:09.984,0.00166001403704286,0,
00:00:09.988,-0.00507472502067685,0,
00:00:09.992,-0.0021315929479897,0,
00:00:09.996,0.00577546795830131,0,
00:00:10,0.00326399807818234,0,
00:00:10.004,-0.00495081814005971,0,
00:00:10.008,-0.00512582901865244,0,
00:00:10.012,0.00871510803699493,0,
00:00:10.016,0.00223134038969874,0,
00:00:10.02,-0.00653630308806896,0,
00:00:10.024,-0.00377721944823861,0,
00:00:10.028,0.00489951111376286,0,
00:00:10.032,0.00328175374306738,0,
00:00:10.036,-0.00232048495672643,0,
00:00:10.04,-0.00646659638732672,0,
00:00:10.044,0.00332919647917151,0,
00:00:10.048,0.00817869137972593,0,
00:00:10.052,-0.00243575731292367,0,
00:00:10.056,-0.00829324778169394,0,
00:00:10.06,0.00176236021798104,0,
00:00:10.064,0.00759846577420831,0,
00:00:10.068,-0.00215257704257965,0,
00:00:10.072,-0.00762995285913348,0,
00:00:10.076,0.00235182326287031,0,
00:00:10.08,0.0078822486102581,0,
00:00:10.084,-9.94640067801811E-05,0,
00:00:10.088,-0.00980049651116133,0,
00:00:10.092,-0.0015797201776877,0,
00:00:10.096,0.00954720005393028,0,
00:00:10.1,0.00235605938360095,0,
00:00:10.104,-0.00647591659799218,0,
00:00:10.108,-0.00369912199676037,0,
00:00:10.112,0.00493628112599254,0,
00:00:10.116,0.00531984027475119,0,
00:00:10.12,-0.00646336609497666,0,
00:00:10.124,-0.00623340625315905,0,
00:00:10.128,0.00679966015741229,0,
00:00:10.132,0.00719659309834242,0,
00:00:10.136,-0.00595977855846286,0,
00:00:10.14,-0.0068667377345264,0,
00:00:10.144,0.00579792261123657,0,
00:00:10.148,0.00438221404328942,0,
00:00:10.152,-0.00213848892599344,0,
00:00:10.156,-0.00493504572659731,0,
00:00:10.16,-0.00142915965989232,0,
00:00:10.164,0.00806308165192604,0,
00:00:10.168,0.00103834201581776,0,
00:00:10.172,-0.00904035568237305,0,
00:00:10.176,-0.00147887249477208,0,
00:00:10.18,0.00922021176666021,0,
00:00:10.184,-0.000130324056954123,0,
00:00:10.188,-0.00476061832159758,0,
00:00:10.192,-0.00210259621962905,0,
00:00:10.196,0.00729655707255006,0,
00:00:10.2,0.00058056553825736,0,
00:00:10.204,-0.00911618117243052,0,
00:00:10.208,-0.00130214844830334,0,
00:00:10.212,0.0094646206125617,0,
00:00:10.216,0.00419734651222825,0,
00:00:10.22,-0.0128039680421352,0,
00:00:10.224,-0.00147187267430127,0,
00:00:10.228,0.00807459466159344,0,
00:00:10.232,0.0066040069796145,0,
00:00:10.236,-0.00703701563179493,0,
00:00:10.24,-0.00761137017980218,0,
00:00:10.244,0.00562511337921023,0,
00:00:10.248,0.00671062478795648,0,
00:00:10.252,-0.00579460524022579,0,
00:00:10.256,-0.00429512932896614,0,
00:00:10.26,0.00223268265835941,0,
00:00:10.264,0.00499075325205922,0,
00:00:10.268,-0.000638292520307004,0,
00:00:10.272,-0.0040352875366807,0,
00:00:10.276,-0.00140352104790509,0,
00:00:10.28,0.00547633832320571,0,
00:00:10.284,0.00242624967359006,0,
00:00:10.288,-0.00568312592804432,0,
00:00:10.292,-0.00333707616664469,0,
00:00:10.296,0.00480871694162488,0,
00:00:10.3,0.00292701623402536,0,
00:00:10.304,-0.00472364528104663,0,
00:00:10.308,-0.00256174732930958,0,
00:00:10.312,0.00303369178436697,0,
00:00:10.316,0.0047752084210515,0,
00:00:10.32,-0.00133985804859549,0,
00:00:10.324,-0.00882845465093851,0,
00:00:10.328,0.0084782037883997,0,
00:00:10.332,0.00496453233063221,0,
00:00:10.336,-0.008025455288589,0,
00:00:10.34,-0.00740778492763639,0,
00:00:10.344,0.00445091305300593,0,
00:00:10.348,0.00960027053952217,0,
00:00:10.352,-0.00157495227176696,0,
00:00:10.356,-0.00814661104232073,0,
00:00:10.36,0.00144190422724932,0,
00:00:10.364,0.0071583054959774,0,
00:00:10.368,-0.00453838519752026,0,
00:00:10.372,-0.00367327616550028,0,
00:00:10.376,1.81468640221283E-05,0,
00:00:10.38,0.0085362745448947,0,
00:00:10.384,0.000645279709715396,0,
00:00:10.388,-0.00767496321350336,0,
00:00:10.392,-0.00400575064122677,0,
00:00:10.396,0.00531110912561417,0,
00:00:10.4,0.00386369437910616,0,
00:00:10.404,-0.00399116799235344,0,
00:00:10.408,-0.00230536167509854,0,
00:00:10.412,0.00702810380607843,0,
00:00:10.416,0.000480232149129733,0,
00:00:10.42,-0.00701146479696035,0,
00:00:10.424,-0.00321675254963338,0,
00:00:10.428,0.00369894318282604,0,
00:00:10.432,0.00587639771401882,0,
00:00:10.436,-0.000520677887834609,0,
00:00:10.44,-0.00442027440294623,0,
00:00:10.444,-0.00190886191558093,0,
00:00:10.448,0.00720144854858518,0,
00:00:10.452,0.00034662926918827,0,
00:00:10.456,-0.00931343715637922,0,
00:00:10.46,0.00070050690555945,0,
00:00:10.464,0.00753229577094316,0,
00:00:10.468,-0.00149703701026738,0,
00:00:10.472,-0.00686177425086498,0,
00:00:10.476,0.000730264349840581,0,
00:00:10.48,0.00989480782300234,0,
00:00:10.484,0.00129700975958258,0,
00:00:10.488,-0.00994081795215607,0,
00:00:10.492,-0.000575143145397305,0,
00:00:10.496,0.00231215334497392,0,
00:00:10.5,0.00614972878247499,0,
00:00:10.504,-0.00740865850821137,0,
00:00:10.508,-0.00178390555083752,0,
00:00:10.512,0.00827100686728954,0,
00:00:10.516,0.00116654951125383,0,
00:00:10.52,-0.00911253038793802,0,
00:00:10.524,-0.00165344367269427,0,
00:00:10.528,0.00699270656332374,0,
00:00:10.532,0.00385815347544849,0,
00:00:10.536,-0.00299404095858336,0,
00:00:10.54,-0.00754977064207196,0,
00:00:10.544,0.00460211839526892,0,
00:00:10.548,0.00595085509121418,0,
00:00:10.552,-0.00595095986500382,0,
00:00:10.556,-0.00402461597695947,0,
00:00:10.56,0.00261500664055347,0,
00:00:10.564,0.00732916546985507,0,
00:00:10.568,-0.0025475500151515,0,
00:00:10.572,-0.00783797167241573,0,
00:00:10.576,0.00233018584549427,0,
00:00:10.58,0.00794747099280357,0,
00:00:10.584,-0.00211254227906466,0,
00:00:10.588,-0.00780640030279756,0,
00:00:10.592,0.00211495766416192,0,
00:00:10.596,0.00563162006437778,0,
00:00:10.6,0.00181062414776534,0,
00:00:10.604,-0.00605636416003108,0,
00:00:10.608,-0.00330958236008883,0,
00:00:10.612,0.00505032250657678,0,
00:00:10.616,0.00316031137481332,0,
00:00:10.62,-0.00462008966132998,0,
00:00:10.624,-0.00259388284757733,0,
00:00:10.628,0.00500364322215319,0,
00:00:10.632,0.00476837949827313,0,
00:00:10.636,-0.0070966356433928,0,
00:00:10.64,-0.00660775136202574,0,
00:00:10.644,0.00675884494557977,0,
00:00:10.648,0.00530379172414541,0,
00:00:10.652,-0.00166820304002613,0,
00:00:10.656,-0.00702708307653666,0,
00:00:10.66,0.00231702043674886,0,
00:00:10.664,0.00738175911828876,0,
00:00:10.668,-0.00272841798141599,0,
00:00:10.672,-0.0081431157886982,0,
00:00:10.676,4.28601560997777E-05,0,
00:00:10.68,0.00990303140133619,0,
00:00:10.684,0.00173948053270578,0,
00:00:10.688,-0.0114945117384195,0,
00:00:10.692,-0.000324147549690679,0,
00:00:10.696,0.0101845478639007,0,
00:00:10.7,0.00185726501513273,0,
00:00:10.704,-0.00746602332219481,0,
00:00:10.708,-0.00447522802278399,0,
00:00:10.712,0.0067716515623033,0,
00:00:10.716,-0.000579093350097537,0,
00:00:10.72,-0.00372192985378206,0,
00:00:10.724,-0.000669704284518957,0,
00:00:10.728,0.00621415721252561,0,
00:00:10.732,0.00282344897277653,0,
00:00:10.736,-0.00569550460204482,0,
00:00:10.74,-0.0036133190151304,0,
00:00:10.744,0.00240350957028568,0,
00:00:10.748,0.0067501119337976,0,
00:00:10.752,-0.00513175129890442,0,
00:00:10.756,-0.00398146780207753,0,
00:00:10.76,0.00210947007872164,0,
00:00:10.764,0.00467411149293184,0,
00:00:10.768,0.00117394747212529,0,
00:00:10.772,-0.00818074773997068,0,
00:00:10.776,-0.00100966694299132,0,
00:00:10.78,0.00915048085153103,0,
00:00:10.784,0.00159317953512073,0,
00:00:10.788,-0.00707518216222525,0,
00:00:10.792,-0.00390706723555923,0,
00:00:10.796,0.00506937876343727,0,
00:00:10.8,0.00560703407973051,0,
00:00:10.804,-0.00827978923916817,0,
00:00:10.808,-0.00204846588894725,0,
00:00:10.812,0.00647004088386893,0,
00:00:10.816,0.00358191737905145,0,
00:00:10.82,-0.00301598059013486,0,
00:00:10.824,-0.00744288181886077,0,
00:00:10.828,0.00471416441723704,0,
00:00:10.832,0.00600271113216877,0,
00:00:10.836,-0.005964579526335,0,
00:00:10.84,-0.00407442823052406,0,
00:00:10.844,0.00256387609988451,0,
00:00:10.848,0.00522290822118521,0,
00:00:10.852,-0.000577667087782174,0,
00:00:10.856,-0.00410860544070601,0,
00:00:10.86,0.000548451265785843,0,
00:00:10.864,0.00339931016787887,0,
00:00:10.868,-0.00133722962345928,0,
00:00:10.872,-0.00387826142832637,0,
00:00:10.876,-0.00081800518091768,0,
00:00:10.88,0.00812496338039637,0,
00:00:10.884,-0.00131493399385363,0,
00:00:10.888,-0.0053326147608459,0,
00:00:10.892,3.93173686461523E-05,0,
00:00:10.896,0.00365175399929285,0,
00:00:10.9,-0.000743039709050208,0,
00:00:10.904,-0.00336326146498322,0,
00:00:10.908,0.00148289324715734,0,
00:00:10.912,0.00194236868992448,0,
00:00:10.916,0.00494120037183166,0,
00:00:10.92,-0.00638320483267307,0,
00:00:10.924,-0.006320979911834,0,
00:00:10.928,0.00657061347737908,0,
00:00:10.932,0.00492550665512681,0,
00:00:10.936,-0.00404174206778407,0,
00:00:10.94,-0.00515000987797976,0,
00:00:10.944,0.00611079856753349,0,
00:00:10.948,0.00573685020208359,0,
00:00:10.952,-0.00715236179530621,0,
00:00:10.956,-0.00522696087136865,0,
00:00:10.96,0.00407452462241054,0,
00:00:10.964,0.00331833143718541,0,
00:00:10.968,-0.00177932344377041,0,
00:00:10.972,-0.00380427180789411,0,
00:00:10.976,-0.00037987987161614,0,
00:00:10.98,0.00647511566057801,0,
00:00:10.984,0.00499360030516982,0,
00:00:10.988,-0.00979631394147873,0,
00:00:10.992,-0.00338965049013495,0,
00:00:10.996,0.00792657397687435,0,
00:00:11,0.00170249526854604,0,
00:00:11.004,-0.00832232087850571,0,
00:00:11.008,-0.00107993232086301,0,
00:00:11.012,0.00925256870687008,0,
00:00:11.016,-0.000324443826684728,0,
00:00:11.02,-0.00500025134533644,0,
00:00:11.024,-0.00226314761675894,0,
00:00:11.028,0.00517710857093334,0,
00:00:11.032,0.00467598345130682,0,
00:00:11.036,-0.00729654496535659,0,
00:00:11.04,-0.00675489660352468,0,
00:00:11.044,0.00673048803582788,0,
00:00:11.048,0.00537246465682983,0,
00:00:11.052,-0.00156411447096616,0,
00:00:11.056,-0.00694316066801548,0,
00:00:11.06,0.00235468451865017,0,
00:00:11.064,0.00737674254924059,0,
00:00:11.068,-0.0027561045717448,0,
00:00:11.072,-0.00817217119038105,0,
00:00:11.076,0.00210123183205724,0,
00:00:11.08,0.00584878027439117,0,
00:00:11.084,3.50530831383367E-06,0,
00:00:11.088,-0.0038932547904551,0,
00:00:11.092,-0.00160597171634436,0,
00:00:11.096,0.00726500805467367,0,
00:00:11.1,0.000262302724877372,0,
00:00:11.104,-0.00943563971668482,0,
00:00:11.108,-0.00146043405402452,0,
00:00:11.112,0.00948389619588852,0,
00:00:11.116,0.00432030996307731,0,
00:00:11.12,-0.0105935940518975,0,
00:00:11.124,-0.00336204026825726,0,
00:00:11.128,0.00645276252180338,0,
00:00:11.132,0.00432487018406391,0,
00:00:11.136,-0.00426118588075042,0,
00:00:11.14,-0.00289934151805937,0,
00:00:11.144,0.00236766273155808,0,
00:00:11.148,0.00628624996170402,0,
00:00:11.152,-0.0035703491885215,0,
00:00:11.156,-0.0083539504557848,0,
00:00:11.16,0.000297806458547711,0,
00:00:11.164,0.0102990698069334,0,
00:00:11.168,-4.87106735818088E-05,0,
00:00:11.172,-0.007356490008533,0,
00:00:11.176,0.00134302687365562,0,
00:00:11.18,0.00660270638763905,0,
00:00:11.184,-0.00300133530981839,0,
00:00:11.188,-0.00591024523600936,0,
00:00:11.192,-0.00158932921476662,0,
00:00:11.196,0.0085635781288147,0,
00:00:11.2,0.00170913944020867,0,
00:00:11.204,-0.00858501251786947,0,
00:00:11.208,-0.0013689158950001,0,
00:00:11.212,0.00906575564295053,0,
00:00:11.216,0.00169449928216636,0,
00:00:11.22,-0.00693944934755564,0,
00:00:11.224,-0.0038346282672137,0,
00:00:11.228,0.00505820428952575,0,
00:00:11.232,0.00346780871041119,0,
00:00:11.236,-0.004299262072891,0,
00:00:11.24,-0.00242773932404816,0,
00:00:11.244,0.00291685480624437,0,
00:00:11.248,0.00662568863481283,0,
00:00:11.252,-0.00558830471709371,0,
00:00:11.256,-0.0065177446231246,0,
00:00:11.26,0.00589321553707123,0,
00:00:11.264,0.00637625390663743,0,
00:00:11.268,-0.00423260638490319,0,
00:00:11.272,-0.00871705450117588,0,
00:00:11.276,0.00245571648702025,0,
00:00:11.28,0.008630714379251,0,
00:00:11.284,0.000665648782160133,0,
00:00:11.288,-0.00938731618225574,0,
00:00:11.292,-0.00157058914192021,0,
00:00:11.296,0.00930501148104668,0,
00:00:11.3,-1.0098332495545E-05,0,
00:00:11.304,-0.00469660572707653,0,
00:00:11.308,-3.86955180147197E-05,0,
00:00:11.312,0.00318612647242844,0,
00:00:11.316,0.000848451803904027,0,
00:00:11.32,-0.00561780296266079,0,
00:00:11.324,-0.00434475764632225,0,
00:00:11.328,0.0099944407120347,0,
00:00:11.332,0.00320955761708319,0,
00:00:11.336,-0.00618981383740902,0,
00:00:11.34,-0.00397098949179053,0,
00:00:11.344,0.00446136668324471,0,
00:00:11.348,0.00288343918509781,0,
00:00:11.352,-0.00252666207961738,0,
00:00:11.356,-0.0064726248383522,0,
00:00:11.36,0.00344262062571943,0,
00:00:11.364,0.0062374803237617,0,
00:00:11.368,-0.000371254369383678,0,
00:00:11.372,-0.00455105397850275,0,
00:00:11.376,-5.98974620515946E-05,0,
00:00:11.38,0.00299597252160311,0,
00:00:11.384,0.000659433775581419,0,
00:00:11.388,-0.00776629894971848,0,
00:00:11.392,0.00183531187940389,0,
00:00:11.396,0.00573007855564356,0,
00:00:11.4,0.000117935487651266,0,
00:00:11.404,-0.00162596581503749,0,
00:00:11.408,-0.00345762446522713,0,
00:00:11.412,0.00355295673944056,0,
00:00:11.416,0.00405519222840667,0,
00:00:11.42,-0.00695576565340161,0,
00:00:11.424,-0.00395121332257986,0,
00:00:11.428,0.00327091384679079,0,
00:00:11.432,0.00800095219165087,0,
00:00:11.436,-0.0063413199968636,0,
00:00:11.44,-0.00181239517405629,0,
00:00:11.444,0.00341750076040626,0,
00:00:11.448,0.00639894185587764,0,
00:00:11.452,-0.00414870493113995,0,
00:00:11.456,-0.0090678995475173,0,
00:00:11.46,0.00192627403885126,0,
00:00:11.464,0.00825504958629608,0,
00:00:11.468,-0.00356586580164731,0,
00:00:11.472,-0.00320083298720419,0,
00:00:11.476,0.00206485879607499,0,
00:00:11.48,0.00417200848460197,0,
00:00:11.484,0.000632209470495582,0,
00:00:11.488,-0.00642759492620826,0,
00:00:11.492,-0.00303508364595473,0,
00:00:11.496,0.00556649547070265,0,
00:00:11.5,0.00357677857391536,0,
00:00:11.504,-0.0044540180824697,0,
00:00:11.508,-0.0026530169416219,0,
00:00:11.512,0.00483453506603837,0,
00:00:11.516,0.00460599176585674,0,
00:00:11.52,-0.0113375056535006,0,
00:00:11.524,0.00148606381844729,0,
00:00:11.528,0.00405902089551091,0,
00:00:11.532,0.00647892756387591,0,
00:00:11.536,-0.00607921648770571,0,
00:00:11.54,-0.00479893991723657,0,
00:00:11.544,0.00174980820156634,0,
00:00:11.548,0.00681314524263144,0,
00:00:11.552,-0.00260002631694078,0,
00:00:11.556,-0.00757006742060184,0,
00:00:11.56,0.00268578506074846,0,
00:00:11.564,0.00820934679359198,0,
00:00:11.568,-0.00201452616602182,0,
00:00:11.572,-0.00784498639404774,0,
00:00:11.576,0.00201347074471414,0,
00:00:11.58,0.00761278904974461,0,
00:00:11.584,-0.00229045981541276,0,
00:00:11.588,-0.00572553975507617,0,
00:00:11.592,-0.00181821500882506,0,
00:00:11.596,0.00610197009518743,0,
00:00:11.6,0.00336660561151803,0,
00:00:11.604,-0.00501108448952436,0,
00:00:11.608,-0.00522405747324228,0,
00:00:11.612,0.00866218563169241,0,
00:00:11.616,0.00224318378604949,0,
00:00:11.62,-0.00648349337279797,0,
00:00:11.624,-0.00371933099813759,0,
00:00:11.628,0.00493706110864878,0,
00:00:11.632,0.00329181319102645,0,
00:00:11.636,-0.00440647732466459,0,
00:00:11.64,-0.00243318290449679,0,
00:00:11.644,0.00298141851089895,0,
00:00:11.648,0.00670725200325251,0,
00:00:11.652,-0.00345450406894088,0,
00:00:11.656,-0.0105489864945412,0,
00:00:11.66,0.00413985271006823,0,
00:00:11.664,0.00979240890592337,0,
00:00:11.668,-0.00159239792264998,0,
00:00:11.672,-0.00836597476154566,0,
00:00:11.676,0.00121598830446601,0,
00:00:11.68,0.0070606111548841,0,
00:00:11.684,-0.00241597485728562,0,
00:00:11.688,-0.00759680941700935,0,
00:00:11.692,0.00255594495683908,0,
00:00:11.696,0.0060282782651484,0,
00:00:11.7,0.00201488193124533,0,
00:00:11.704,-0.00812685582786798,0,
00:00:11.708,-0.00144733535125852,0,
00:00:11.712,0.00863437075167894,0,
00:00:11.716,0.00127350422553718,0,
00:00:11.72,-0.00920476391911507,0,
00:00:11.724,0.000276408420177177,0,
00:00:11.728,0.00284839794039726,0,
00:00:11.732,0.00625880714505911,0,
00:00:11.736,-0.00552772637456656,0,
00:00:11.74,-0.00612758658826351,0,
00:00:11.744,0.00837857276201248,0,
00:00:11.748,0.00254124961793423,0,
00:00:11.752,-0.00598950730636716,0,
00:00:11.756,-0.00335935829207301,0,
00:00:11.76,0.00295939506031573,0,
00:00:11.764,0.00722816493362188,0,
00:00:11.768,-0.00286312820389867,0,
00:00:11.772,-0.00811651814728975,0,
00:00:11.776,0.0022164648398757,0,
00:00:11.78,0.00799392722547054,0,
00:00:11.784,9.14566408027895E-05,0,
00:00:11.788,-0.00965694151818752,0,
00:00:11.792,-0.00153209269046783,0,
00:00:11.796,0.00743926083669066,0,
00:00:11.8,0.00426497031003237,0,
00:00:11.804,-0.0048923185095191,0,
00:00:11.808,-0.00562669988721609,0,
00:00:11.812,0.00814549438655376,0,
00:00:11.816,0.00190100714098662,0,
00:00:11.82,-0.00863923504948616,0,
00:00:11.824,-0.00162884430028498,0,
00:00:11.828,0.00676258280873299,0,
00:00:11.832,0.00569085450842977,0,
00:00:11.836,-0.00716230366379023,0,
00:00:11.84,-0.00511629926040769,0,
00:00:11.844,0.00212191813625395,0,
00:00:11.848,0.0074162045493722,0,
00:00:11.852,-0.00423154234886169,0,
00:00:11.856,-0.00338669866323471,0,
00:00:11.86,0.000152277483721264,0,
00:00:11.864,0.0084893386811018,0,
00:00:11.868,-0.00158985913731158,0,
00:00:11.872,-0.00587241258472204,0,
00:00:11.876,-0.000402713660150766,0,
00:00:11.88,0.00140161719173193,0,
00:00:11.884,0.00545466132462025,0,
00:00:11.888,-0.00755623355507851,0,
00:00:11.892,-0.00361695792526007,0,
00:00:11.896,0.0126671642065048,0,
00:00:11.9,0.00106908555608243,0,
00:00:11.904,-0.0105206565931439,0,
00:00:11.908,-0.000677227566484362,0,
00:00:11.912,0.00677914125844836,0,
00:00:11.916,-0.00154201430268586,0,
00:00:11.92,-0.00648578302934766,0,
00:00:11.924,0.00117540406063199,0,
00:00:11.928,0.00810233876109123,0,
00:00:11.932,0.00540870567783713,0,
00:00:11.936,-0.00829721055924892,0,
00:00:11.94,-0.00831814669072628,0,
00:00:11.944,0.00555946072563529,0,
00:00:11.948,0.00497346417978406,0,
00:00:11.952,-0.00131602538749576,0,
00:00:11.956,-0.0064105112105608,0,
00:00:11.96,0.00490662176162004,0,
00:00:11.964,0.0035666273906827,0,
00:00:11.968,-0.0024220694322139,0,
00:00:11.972,-0.00477126101031899,0,
00:00:11.976,0.00305941049009562,0,
00:00:11.98,0.00231084180995822,0,
00:00:11.984,-0.0022397676948458,0,
00:00:11.988,-0.00374613655731082,0,
00:00:11.992,0.00200839480385184,0,
00:00:11.996,0.00272944965399802,0,
00:00:12,0.00340732536278665,0,
00:00:12.004,-0.00428589107468724,0,
00:00:12.008,-0.0007289171917364,0,
00:00:12.012,0.000404074642574415,0,
00:00:12.016,0.00459542218595743,0,
00:00:12.02,-0.00586740393191576,0,
00:00:12.024,-0.00553993601351976,0,
00:00:12.028,0.00922829750925303,0,
00:00:12.032,0.0010769737418741,0,
00:00:12.036,0.000329496950143948,0,
00:00:12.04,-0.00996476318687201,0,
00:00:12.044,0.00559398485347629,0,
00:00:12.048,0.00709406472742558,0,
00:00:12.052,-0.00361169292591512,0,
00:00:12.056,-0.010623237118125,0,
00:00:12.06,0.00423589954152703,0,
00:00:12.064,0.0120277581736445,0,
00:00:12.068,-0.00553093571215868,0,
00:00:12.072,-0.00593530246987939,0,
00:00:12.076,0.00273060868494213,0,
00:00:12.08,0.00231035123579204,0,
00:00:12.084,-0.00421238550916314,0,
00:00:12.088,-0.00373835884965956,0,
00:00:12.092,0.00777615886181593,0,
00:00:12.096,0.00260749366134405,0,
00:00:12.1,0.00110348663292825,0,
00:00:12.104,-0.00634432025253773,0,
00:00:12.108,-0.00155714305583388,0,
00:00:12.112,0.00278795044869184,0,
00:00:12.116,-0.000682170619256794,0,
00:00:12.12,-0.00276354886591434,0,
00:00:12.124,0.00213358202017844,0,
00:00:12.128,0.00440784730017185,0,
00:00:12.132,-0.00320041133090854,0,
00:00:12.136,-0.00018603092757985,0,
00:00:12.14,0.00245399191044271,0,
00:00:12.144,-0.0101698646321893,0,
00:00:12.148,0.0122882863506675,0,
00:00:12.152,0.000179416238097474,0,
00:00:12.156,-0.00978752970695496,0,
00:00:12.16,0.00925686955451965,0,
00:00:12.164,0.000222250862861983,0,
00:00:12.168,-0.00559367425739765,0,
00:00:12.172,-0.00748717924579978,0,
00:00:12.176,0.00429949630051851,0,
00:00:12.18,0.00988774560391903,0,
00:00:12.184,0.000986228929832578,0,
00:00:12.188,-0.0159924682229757,0,
00:00:12.192,0.00995913241058588,0,
00:00:12.196,0.00780897820368409,0,
00:00:12.2,-0.00253505120053887,0,
00:00:12.204,-0.0117527078837156,0,
00:00:12.208,-0.00422763638198376,0,
00:00:12.212,0.0099742840975523,0,
00:00:12.216,0.00897680316120386,0,
00:00:12.22,-0.00381850334815681,0,
00:00:12.224,-0.00976683385670185,0,
00:00:12.228,0.00311582046560943,0,
00:00:12.232,0.00567056564614177,0,
00:00:12.236,-0.0095653748139739,0,
00:00:12.24,0.000671552843414247,0,
00:00:12.244,0.012640661559999,0,
00:00:12.248,-0.00433262437582016,0,
00:00:12.252,0.000765407981816679,0,
00:00:12.256,-0.00971116684377193,0,
00:00:12.26,-0.00144721393007785,0,
00:00:12.264,0.00778771238401532,0,
00:00:12.268,0.00261545390821993,0,
00:00:12.272,-0.00468784011900425,0,
00:00:12.276,0.00639479467645288,0,
00:00:12.28,-7.95726737123914E-05,0,
00:00:12.284,-0.00972585752606392,0,
00:00:12.288,-0.00170032063033432,0,
00:00:12.292,0.00522256549447775,0,
00:00:12.296,0.00830586161464453,0,
00:00:12.3,0.00111780816223472,0,
00:00:12.304,-0.0128492219373584,0,
00:00:12.308,-0.00388589780777693,0,
00:00:12.312,0.00718343630433083,0,
00:00:12.316,0.00544322747737169,0,
00:00:12.32,-0.00550473853945732,0,
00:00:12.324,0.00351318810135126,0,
00:00:12.328,-0.000109774045995437,0,
00:00:12.332,0.000735383189748973,0,
00:00:12.336,-0.00519663747400045,0,
00:00:12.34,-9.30156093090773E-05,0,
00:00:12.344,0.0016672887140885,0,
00:00:12.348,0.00357524771243334,0,
00:00:12.352,-0.00136309105437249,0,
00:00:12.356,-0.00598440784960985,0,
00:00:12.36,0.00528463767841458,0,
00:00:12.364,0.0078550148755312,0,
00:00:12.368,-0.0126764047890902,0,
00:00:12.372,-0.00229811621829867,0,
00:00:12.376,0.00540794571861625,0,
00:00:12.38,0.00850892625749111,0,
00:00:12.384,-0.000962655176408589,0,
00:00:12.388,-0.0110337268561125,0,
00:00:12.392,-0.00242814421653748,0,
00:00:12.396,0.0113985016942024,0,
00:00:12.4,-0.003519291523844,0,
00:00:12.404,-0.0058158659376204,0,
00:00:12.408,0.00173119455575943,0,
00:00:12.412,0.0141547117382288,0,
00:00:12.416,-0.0135694509372115,0,
00:00:12.42,0.00430090958252549,0,
00:00:12.424,-0.00309370760805905,0,
00:00:12.428,0.00232124631293118,0,
00:00:12.432,0.00522591499611735,0,
00:00:12.436,-0.00693638762459159,0,
00:00:12.44,-0.011230961419642,0,
00:00:12.444,0.00600787717849016,0,
00:00:12.448,0.0102698309347034,0,
00:00:12.452,-0.00205427757464349,0,
00:00:12.456,0.00173892441671342,0,
00:00:12.46,5.94890734646469E-05,0,
00:00:12.464,0.00018678318883758,0,
00:00:12.468,-0.00432318774983287,0,
00:00:12.472,-0.00523048732429743,0,
00:00:12.476,0.00153815443627536,0,
00:00:12.48,0.00522539392113686,0,
00:00:12.484,0.00227167829871178,0,
00:00:12.488,-0.0113816149532795,0,
00:00:12.492,0.00752472504973412,0,
00:00:12.496,0.0104803340509534,0,
00:00:12.5,-0.00574719440191984,0,
00:00:12.504,-0.00915820989757776,0,
00:00:12.508,-0.00719249900430441,0,
00:00:12.512,0.0128637291491032,0,
00:00:12.516,0.00827872473746538,0,
00:00:12.52,-0.00908009335398674,0,
00:00:12.524,-0.00622880598530173,0,
00:00:12.528,0.00874823238700628,0,
00:00:12.532,0.00459094578400254,0,
00:00:12.536,-0.012462074868381,0,
00:00:12.54,-0.00140824925620109,0,
00:00:12.544,0.00797752756625414,0,
00:00:12.548,0.00442789634689689,0,
00:00:12.552,-0.000932111986912787,0,
00:00:12.556,-0.0119403135031462,0,
00:00:12.56,0.00458170799538493,0,
00:00:12.564,0.00723067810758948,0,
00:00:12.568,-0.00492285843938589,0,
00:00:12.572,-0.00578941823914647,0,
00:00:12.576,0.00641364511102438,0,
00:00:12.58,0.00654188450425863,0,
00:00:12.584,-0.00436960346996784,0,
00:00:12.588,-0.00899143703281879,0,
00:00:12.592,0.000131277643959038,0,
00:00:12.596,0.0167003776878119,0,
00:00:12.6,-0.011932504363358,0,
00:00:12.604,-0.00617134384810925,0,
00:00:12.608,0.00577928405255079,0,
00:00:12.612,0.00959318317472935,0,
00:00:12.616,-0.000478339905384928,0,
00:00:12.62,-0.00916226767003536,0,
00:00:12.624,-0.0049145333468914,0,
00:00:12.628,0.00724629918113351,0,
00:00:12.632,-0.0018931565573439,0,
00:00:12.636,-0.00118087697774172,0,
00:00:12.64,0.00323327025398612,0,
00:00:12.644,0.00428667804226279,0,
00:00:12.648,7.5365969678387E-05,0,
00:00:12.652,-0.00713120494037867,0,
00:00:12.656,-0.00143912364728749,0,
00:00:12.66,0.00137763482052833,0,
00:00:12.664,0.00611017318442464,0,
00:00:12.668,-0.00266292574815452,0,
00:00:12.672,-0.00921359285712242,0,
00:00:12.676,0.00723713776096702,0,
00:00:12.68,0.00607222970575094,0,
00:00:12.684,-0.00152202066965401,0,
00:00:12.688,-0.00534978648647666,0,
00:00:12.692,-0.00228129629977047,0,
00:00:12.696,0.00526545941829681,0,
00:00:12.7,0.00477459374815226,0,
00:00:12.704,-0.00930122844874859,0,
00:00:12.708,-0.00266825989820063,0,
00:00:12.712,0.00432879384607077,0,
00:00:12.716,0.00795084796845913,0,
00:00:12.72,-0.00500387512147427,0,
00:00:12.724,-0.00247327121905982,0,
00:00:12.728,-0.0026538074016571,0,
00:00:12.732,0.00661166431382298,0,
00:00:12.736,-0.00360302743501961,0,
00:00:12.74,-0.0047022164799273,0,
00:00:12.744,0.00667825434356928,0,
00:00:12.748,0.00619571749120951,0,
00:00:12.752,-0.0048891706392169,0,
00:00:12.756,-0.0114300530403852,0,
00:00:12.76,0.00824194215238094,0,
00:00:12.764,0.0042322026565671,0,
00:00:12.768,-0.00235551060177386,0,
00:00:12.772,-0.00674166390672326,0,
00:00:12.776,0.00313379499129951,0,
00:00:12.78,0.00605670595541596,0,
00:00:12.784,0.00166997476480901,0,
00:00:12.788,-0.00854619313031435,0,
00:00:12.792,0.000350873393472284,0,
00:00:12.796,0.00658918870612979,0,
00:00:12.8,-0.000283100001979619,0,
00:00:12.804,-0.0113158682361245,0,
00:00:12.808,0.00320928241126239,0,
00:00:12.812,0.00764408614486456,0,
00:00:12.816,0.00300636794418097,0,
00:00:12.82,-0.00599516788497567,0,
00:00:12.824,-0.00603177910670638,0,
00:00:12.828,0.00625941250473261,0,
00:00:12.832,0.00638957461342216,0,
00:00:12.836,-0.00444596167653799,0,
00:00:12.84,-0.00895608961582184,0,
00:00:12.844,0.00232123420573771,0,
00:00:12.848,0.0107025820761919,0,
00:00:12.852,-0.00745627703145146,0,
00:00:12.856,-0.00292877317406237,0,
00:00:12.86,0.00334736774675548,0,
00:00:12.864,0.00915905088186264,0,
00:00:12.868,-0.00531976111233234,0,
00:00:12.872,-0.0123065253719687,0,
00:00:12.876,0.00169375981204212,0,
00:00:12.88,0.0124638881534338,0,
00:00:12.884,0.00102813541889191,0,
00:00:12.888,-0.0054493066854775,0,
00:00:12.892,-0.00560250831767917,0,
00:00:12.896,0.0101781859993935,0,
00:00:12.9,-0.00021671513968613,0,
00:00:12.904,-0.0104013355448842,0,
00:00:12.908,0.000249341683229432,0,
00:00:12.912,0.0057032648473978,0,
00:00:12.916,0.00311342091299593,0,
00:00:12.92,-0.0067134858109057,0,
00:00:12.924,0.0015497439308092,0,
00:00:12.928,0.00269388593733311,0,
00:00:12.932,0.00530408835038543,0,
00:00:12.936,-0.00860631372779608,0,
00:00:12.94,-0.00473659299314022,0,
00:00:12.944,0.00994397234171629,0,
00:00:12.948,0.00505436165258288,0,
00:00:12.952,-0.00638259155675769,0,
00:00:12.956,-0.0139788407832384,0,
00:00:12.96,0.0106758438050747,0,
00:00:12.964,0.00666655926033854,0,
00:00:12.968,-0.00157355167903006,0,
00:00:12.972,-0.00738345785066485,0,
00:00:12.976,0.0019631867762655,0,
00:00:12.98,0.0051321629434824,0,
00:00:12.984,0.00132702093105763,0,
00:00:12.988,-0.00630152691155672,0,
00:00:12.992,-0.0012161087943241,0,
00:00:12.996,0.00117437890730798,0,
00:00:13,0.00369165372103453,0,
00:00:13.004,-0.00510163186118007,0,
00:00:13.008,0.00251164613291621,0,
00:00:13.012,0.00482013169676065,0,
00:00:13.016,0.000769779086112976,0,
00:00:13.02,-0.00881539937108755,0,
00:00:13.024,-0.00150400039274246,0,
00:00:13.028,0.00689553841948509,0,
00:00:13.032,0.00574438693001866,0,
00:00:13.036,-0.00925242342054844,0,
00:00:13.04,-0.00318135530687869,0,
00:00:13.044,0.00580781884491444,0,
00:00:13.048,0.00353285064920783,0,
00:00:13.052,-0.00265515875071287,0,
00:00:13.056,-0.00698237493634224,0,
00:00:13.06,0.000890157592948526,0,
00:00:13.064,0.0121407229453325,0,
00:00:13.068,-0.00264194002375007,0,
00:00:13.072,-0.00955016817897558,0,
00:00:13.076,0.00298866094090045,0,
00:00:13.08,0.00343922432512045,0,
00:00:13.084,-0.00143256515730172,0,
00:00:13.088,-0.00567275332286954,0,
00:00:13.092,0.0036947769112885,0,
00:00:13.096,0.0102152433246374,0,
00:00:13.1,-0.00258476217277348,0,
00:00:13.104,-0.0121678505092859,0,
00:00:13.108,-0.00435458170250058,0,
00:00:13.112,0.010123098269105,0,
00:00:13.116,0.00712138134986162,0,
00:00:13.12,-0.00171054468955845,0,
00:00:13.124,-0.00605001766234636,0,
00:00:13.128,0.00122400769032538,0,
00:00:13.132,0.00307082082144916,0,
00:00:13.136,-0.00877575669437647,0,
00:00:13.14,-0.00111982761882246,0,
00:00:13.144,0.00780765013769269,0,
00:00:13.148,0.00455742282792926,0,
00:00:13.152,-0.00476521672680974,0,
00:00:13.156,-0.00359524507075548,0,
00:00:13.16,0.00394981959834695,0,
00:00:13.164,0.00208072131499648,0,
00:00:13.168,-0.00519815972074866,0,
00:00:13.172,-0.00261308555491269,0,
00:00:13.176,0.00532918935641646,0,
00:00:13.18,0.00308467028662562,0,
00:00:13.184,-0.00693246768787503,0,
00:00:13.188,-0.00291319051757455,0,
00:00:13.192,0.00851257424801588,0,
00:00:13.196,0.00659325579181314,0,
00:00:13.2,-0.0035392704885453,0,
00:00:13.204,-0.0123489992693067,0,
00:00:13.208,-0.00228448491543531,0,
00:00:13.212,0.00819987151771784,0,
00:00:13.216,0.0076562506146729,0,
00:00:13.22,-0.00788384862244129,0,
00:00:13.224,-0.0007000996847637,0,
00:00:13.228,0.00139083224348724,0,
00:00:13.232,0.0052647078409791,0,
00:00:13.236,-0.00581750879064202,0,
00:00:13.24,-0.0038263478782028,0,
00:00:13.244,0.00681290542706847,0,
00:00:13.248,-0.00500007765367627,0,
00:00:13.252,0.0019672594498843,0,
00:00:13.256,0.000391322508221492,0,
00:00:13.26,0.00482360366731882,0,
