Elapsed Time,Ch1,BioRadio Event,
00:00:00,1.8142317533493,0,
00:00:00.004,-1.72643184661865,0,
00:00:00.008,-1.43514549732208,0,
00:00:00.012,-0.154731601476669,0,
00:00:00.016,0.736550450325012,0,
00:00:00.02,0.898151218891144,0,
00:00:00.024,0.551113128662109,0,
00:00:00.028,0.0713770836591721,0,
00:00:00.032,-0.263063877820969,0,
00:00:00.036,-0.357376247644424,0,
00:00:00.04,-0.262187331914902,0,
00:00:00.044,-0.102386578917503,0,
00:00:00.048,0.0406343527138233,0,
00:00:00.052,0.105419926345348,0,
00:00:00.056,0.0996670871973038,0,
00:00:00.06,0.0469698272645473,0,
00:00:00.064,0.00223602447658777,0,
00:00:00.068,-0.0240536835044622,0,
00:00:00.072,-0.0359902232885361,0,
00:00:00.076,-0.0214012507349253,0,
00:00:00.08,-0.0049700615927577,0,
00:00:00.084,0.00631886254996061,0,
00:00:00.088,0.0100913383066654,0,
00:00:00.092,0.0079624131321907,0,
00:00:00.096,0.00332267652265728,0,
00:00:00.1,-0.000795109197497368,0,
00:00:00.104,-0.00284708011895418,0,
00:00:00.108,-0.000740444753319025,0,
00:00:00.112,-0.00356000964529812,0,
00:00:00.116,-0.00182419479824603,0,
00:00:00.12,0.000539875589311123,0,
00:00:00.124,0.0017776625463739,0,
00:00:00.128,0.00168848165776581,0,
00:00:00.132,0.00292301550507545,0,
00:00:00.136,-0.00410562800243497,0,
00:00:00.14,-0.000251784455031157,0,
00:00:00.144,0.000807557080406696,0,
00:00:00.148,0.000596396392211318,0,
00:00:00.152,7.79340844019316E-05,0,
00:00:00.156,-0.000273774465313181,0,
00:00:00.16,-0.000344031403074041,0,
00:00:00.164,-0.000218033484998159,0,
00:00:00.168,-3.74610754079185E-05,0,
00:00:00.172,9.1702735517174E-05,0,
00:00:00.176,-0.0019442371558398,0,
00:00:00.18,0.00415105745196342,0,
00:00:00.184,-0.000294121651677415,0,
00:00:00.188,-0.00355382030829787,0,
00:00:00.192,0.00299339345656335,0,
00:00:00.196,-0.000554398808162659,0,
00:00:00.2,-0.00108761864248663,0,
00:00:00.204,-0.000472448096843436,0,
00:00:00.208,-0.00186833599582314,0,
00:00:00.212,0.00456818519160151,0,
00:00:00.216,0.000117399060400203,0,
00:00:00.22,-0.0012696678750217,0,
00:00:00.224,-0.00107243016827852,0,
00:00:00.228,-0.000367988715879619,0,
00:00:00.232,0.00021250220015645,0,
00:00:00.236,0.000441123265773058,0,
00:00:00.24,0.00244128052145243,0,
00:00:00.244,-0.00390014052391052,0,
00:00:00.248,0.000286505877738819,0,
00:00:00.252,0.00131904880981892,0,
00:00:00.256,0.000876934849657118,0,
00:00:00.26,0.000104650680441409,0,
00:00:00.264,0.00166936917230487,0,
00:00:00.268,-0.00248810090124607,0,
00:00:00.272,-0.00197748676873744,0,
00:00:00.276,-0.000251504156040028,0,
00:00:00.28,0.000960313365794718,0,
00:00:00.284,0.00121068803127855,0,
00:00:00.288,0.000774885935243219,0,
00:00:00.292,0.000141950324177742,0,
00:00:00.296,-0.00239134742878377,0,
00:00:00.3,0.00359013117849827,0,
00:00:00.304,-0.000687293126247823,0,
00:00:00.308,-0.00160675868391991,0,
00:00:00.312,-0.00305303325876594,0,
00:00:00.316,0.00399809051305056,0,
00:00:00.32,0.000191333194379695,0,
00:00:00.324,-0.00292159710079432,0,
00:00:00.328,0.0013448721729219,0,
00:00:00.332,0.00153168092947453,0,
00:00:00.336,0.000425131613155827,0,
00:00:00.34,0.00156258931383491,0,
00:00:00.344,-0.00486396625638008,0,
00:00:00.348,-0.000255652499618009,0,
00:00:00.352,0.00129823782481253,0,
00:00:00.356,0.00119441596325487,0,
00:00:00.36,0.000496017630212009,0,
00:00:00.364,-0.000134360438096337,0,
00:00:00.368,-0.000425175501732156,0,
00:00:00.372,-0.000392641697544605,0,
00:00:00.376,-0.000191648112377152,0,
00:00:00.38,1.56092010001885E-05,0,
00:00:00.384,-0.00194206275045872,0,
00:00:00.388,0.00419801007956266,0,
00:00:00.392,-0.00231696432456374,0,
00:00:00.396,0.000530963821802288,0,
00:00:00.4,0.000592278898693621,0,
00:00:00.404,-5.4603056923952E-05,0,
00:00:00.408,-0.000482152623590082,0,
00:00:00.412,-0.000493566913064569,0,
00:00:00.416,-0.000243713482632302,0,
00:00:00.42,3.97576332034078E-05,0,
00:00:00.424,0.00228339107707143,0,
00:00:00.428,-0.0017489759484306,0,
00:00:00.432,0.000578209350351244,0,
00:00:00.436,-0.00419187871739268,0,
00:00:00.44,0.00113397149834782,0,
00:00:00.444,0.00449874484911561,0,
00:00:00.448,-0.000380919023882598,0,
00:00:00.452,-0.00347518245689571,0,
00:00:00.456,0.00318104075267911,0,
00:00:00.46,-0.00250433455221355,0,
00:00:00.464,0.000872835633344948,0,
00:00:00.468,0.00104382820427418,0,
00:00:00.472,0.000228002842050046,0,
00:00:00.476,-0.000442753866082057,0,
00:00:00.48,-0.000625069893430918,0,
00:00:00.484,-0.000423985766246915,0,
00:00:00.488,-9.36974902288057E-05,0,
00:00:00.492,0.000158183902385645,0,
00:00:00.496,0.000247160030994564,0,
00:00:00.5,0.00227323872968555,0,
00:00:00.504,-0.00396573729813099,0,
00:00:00.508,0.000317022379022092,0,
00:00:00.512,0.00347221293486655,0,
00:00:00.516,-0.00310105714015663,0,
00:00:00.52,0.000477679510368034,0,
00:00:00.524,0.00313767232000828,0,
00:00:00.528,-0.0014877658104524,0,
00:00:00.532,-0.00181700743269175,0,
00:00:00.536,-0.000665443774778396,0,
00:00:00.54,0.000406188191846013,0,
00:00:00.544,0.000831849407404661,0,
00:00:00.548,-0.00140134047251195,0,
00:00:00.552,0.00430597690865397,0,
00:00:00.556,-0.000455984205473214,0,
00:00:00.56,-0.00384338619187474,0,
00:00:00.564,0.000672310125082731,0,
00:00:00.568,0.00338049652054906,0,
00:00:00.572,-0.00141239375807345,0,
00:00:00.576,-0.00185980892274529,0,
00:00:00.58,-0.00280335103161633,0,
00:00:00.584,0.00443585962057114,0,
00:00:00.588,0.000525681243743747,0,
00:00:00.592,-0.000738533795811236,0,
00:00:00.596,-0.000716839567758143,0,
00:00:00.6,-0.000280952663160861,0,
00:00:00.604,9.7682343039196E-05,0,
00:00:00.608,0.000253913312917575,0,
00:00:00.612,0.000214770145248622,0,
00:00:00.616,8.5706815298181E-05,0,
00:00:00.62,-3.41901140927803E-05,0,
00:00:00.624,-9.32791735976934E-05,0,
00:00:00.628,-0.00216510239988565,0,
00:00:00.632,0.00400189775973558,0,
00:00:00.636,-0.000338041048962623,0,
00:00:00.64,-0.00144173961598426,0,
00:00:00.644,-0.000990085769444704,0,
00:00:00.648,-0.000164180979481898,0,
00:00:00.652,0.000403657089918852,0,
00:00:00.656,0.000544401875231415,0,
00:00:00.66,0.000373613700503483,0,
00:00:00.664,0.000100093748187646,0,
00:00:00.668,0.00196550320833921,0,
00:00:00.672,-0.00216492102481425,0,
00:00:00.676,-0.00179819006007165,0,
00:00:00.68,-0.000247154588578269,0,
00:00:00.684,-0.00122290942817926,0,
00:00:00.688,0.00305564678274095,0,
00:00:00.692,0.00232757232151926,0,
00:00:00.696,0.000291412958176807,0,
00:00:00.7,-0.00113806664012372,0,
00:00:00.704,0.000626665889285505,0,
00:00:00.708,-0.00500186905264854,0,
00:00:00.712,0.000125849081086926,0,
00:00:00.716,0.00180723029188812,0,
00:00:00.72,0.00154973170720041,0,
00:00:00.724,0.00060305098304525,0,
00:00:00.728,-0.000221509733819403,0,
00:00:00.732,-0.000589835341088474,0,
00:00:00.736,-0.000532460864633322,0,
00:00:00.74,-0.000257068168139085,0,
00:00:00.744,2.17594642890617E-05,0,
00:00:00.748,-0.00189669243991375,0,
00:00:00.752,0.00424684304744005,0,
00:00:00.756,-0.00228707049973309,0,
00:00:00.76,0.000536947743967175,0,
00:00:00.764,0.00265749311074615,0,
00:00:00.768,-0.00204563001170754,0,
00:00:00.772,-0.0021361589897424,0,
00:00:00.776,-0.00275102187879384,0,
00:00:00.78,0.00257598422467709,0,
00:00:00.784,0.00478981994092464,0,
00:00:00.788,-0.000955746159888804,0,
00:00:00.792,-0.00217441841959953,0,
00:00:00.796,-0.001361028640531,0,
00:00:00.8,-0.00223743240348995,0,
00:00:00.804,0.00257541891187429,0,
00:00:00.808,0.00446619233116508,0,
00:00:00.812,-0.00339361932128668,0,
00:00:00.816,-0.000412824738305062,0,
00:00:00.82,0.00233274628408253,0,
00:00:00.824,-0.00393203413113952,0,
00:00:00.828,0.000227764874580316,0,
00:00:00.832,0.00128499255515635,0,
00:00:00.836,0.00298047950491309,0,
00:00:00.84,-0.0017928360030055,0,
00:00:00.844,-0.00195906404405832,0,
00:00:00.848,-0.000623859232291579,0,
00:00:00.852,0.00053500768262893,0,
00:00:00.856,0.000948153843637556,0,
00:00:00.86,0.0007266626926139,0,
00:00:00.864,0.00024295765615534,0,
00:00:00.868,-0.000169260369148105,0,
00:00:00.872,-0.00242625176906586,0,
00:00:00.876,0.00373935187235475,0,
00:00:00.88,-0.000490803271532059,0,
00:00:00.884,-0.00146543234586716,0,
00:00:00.888,-0.000928300549276173,0,
00:00:00.892,-7.89385594544001E-05,0,
00:00:00.896,0.000466049765236676,0,
00:00:00.9,0.000566671602427959,0,
00:00:00.904,0.000362878083251417,0,
00:00:00.908,-0.00200109952129424,0,
00:00:00.912,0.00391775090247393,0,
00:00:00.916,-0.000534670893102884,0,
00:00:00.92,-0.00162127998191863,0,
00:00:00.924,-0.00108314107637852,0,
00:00:00.928,0.0019088895060122,0,
00:00:00.932,-0.00152041495312005,0,
00:00:00.936,-0.00311261788010597,0,
00:00:00.94,0.00221218797378242,0,
00:00:00.944,0.00259587308391929,0,
00:00:00.948,0.00315932952798903,0,
00:00:00.952,-0.00239605084061623,0,
00:00:00.956,-0.00275971437804401,0,
00:00:00.96,-0.00118559342809021,0,
00:00:00.964,0.000363450148142874,0,
00:00:00.968,0.00108430103864521,0,
00:00:00.972,0.000987425097264349,0,
00:00:00.976,0.000466084107756615,0,
00:00:00.98,-6.3359817431774E-05,0,
00:00:00.984,-0.00243417383171618,0,
00:00:00.988,0.00366832409054041,0,
00:00:00.992,-0.000568226329050958,0,
00:00:00.996,-0.00358913093805313,0,
00:00:01,0.00103693071287125,0,
00:00:01.004,0.00157946336548775,0,
00:00:01.008,0.000667885411530733,0,
00:00:01.012,-0.000256984552834183,0,
00:00:01.016,-0.000657216121908277,0,
00:00:01.02,-0.000558332307264209,0,
00:00:01.024,0.00185352354310453,0,
00:00:01.028,-0.00395843526348472,0,
00:00:01.032,0.000582128239329904,0,
00:00:01.036,0.00170369143597782,0,
00:00:01.04,0.00115214579273015,0,
00:00:01.044,0.00227472535334527,0,
00:00:01.048,-0.0024334283079952,0,
00:00:01.052,-0.00226969760842621,0,
00:00:01.056,-0.000615042983554304,0,
00:00:01.06,0.000716896669473499,0,
00:00:01.064,0.00114579813089222,0,
00:00:01.068,0.00084431836148724,0,
00:00:01.072,0.000261100823991001,0,
00:00:01.076,-0.000218098983168602,0,
00:00:01.08,0.00165788433514535,0,
00:00:01.084,-0.00441231112927198,0,
00:00:01.088,0.00015802463167347,0,
00:00:01.092,0.0014730233233422,0,
00:00:01.096,0.0011313856812194,0,
00:00:01.1,0.00238497275859118,0,
00:00:01.104,-0.00229400000534952,0,
00:00:01.108,-0.00217301468364894,0,
00:00:01.112,-0.000584799330681562,0,
00:00:01.116,-0.00138042494654655,0,
00:00:01.12,0.00307858129963279,0,
00:00:01.124,0.00452561164274812,0,
00:00:01.128,-0.0015544998459518,0,
00:00:01.132,-0.00270151626318693,0,
00:00:01.136,-0.00161086674779654,0,
00:00:01.14,-0.000136316113639623,0,
00:00:01.144,-0.00129721465054899,0,
00:00:01.148,0.00291652791202068,0,
00:00:01.152,0.00224151369184256,0,
00:00:01.156,0.0023744038771838,0,
00:00:01.16,-0.00511496514081955,0,
00:00:01.164,-0.00102613237686455,0,
00:00:01.168,0.000578289793338627,0,
00:00:01.172,0.000835445243865252,0,
00:00:01.176,0.000516891130246222,0,
00:00:01.18,0.000107685053080786,0,
00:00:01.184,-0.000153884990140796,0,
00:00:01.188,0.00185665430035442,0,
00:00:01.192,-0.00420034304261208,0,
00:00:01.196,0.000296573009109125,0,
00:00:01.2,0.00151349499356002,0,
00:00:01.204,0.00109878950752318,0,
00:00:01.208,0.000248376309173182,0,
00:00:01.212,-0.0024455760139972,0,
00:00:01.216,0.00557237723842263,0,
00:00:01.22,-0.00271371263079345,0,
00:00:01.224,-0.00323764397762716,0,
00:00:01.228,-0.00110337021760643,0,
00:00:01.232,0.000845816568471491,0,
00:00:01.236,0.0015888191992417,0,
00:00:01.24,0.00125973077956587,0,
00:00:01.244,0.000461255054688081,0,
00:00:01.248,-0.000243543574470095,0,
00:00:01.252,-0.000571959477383643,0,
00:00:01.256,-0.000528021657373756,0,
00:00:01.26,-0.000279466854408383,0,
00:00:01.264,-0.00209118984639645,0,
00:00:01.268,0.00419642589986324,0,
00:00:01.272,-0.000156353722559288,0,
00:00:01.276,-0.00134550244547427,0,
00:00:01.28,-0.000985109130851924,0,
00:00:01.284,-0.00021469134662766,0,
00:00:01.288,0.000342401122907177,0,
00:00:01.292,0.000503176066558808,0,
00:00:01.296,0.000361810671165586,0,
00:00:01.3,0.000110567692900077,0,
00:00:01.304,-9.12739051273093E-05,0,
00:00:01.308,-0.000173770444234833,0,
00:00:01.312,-0.000148974446346983,0,
00:00:01.316,-7.1086578827817E-05,0,
00:00:01.32,0.00208059977740049,0,
00:00:01.324,-0.0040039848536253,0,
00:00:01.328,0.000384913961170241,0,
00:00:01.332,0.00149712385609746,0,
00:00:01.336,0.00102669897023588,0,
00:00:01.34,0.000174123328179121,0,
00:00:01.344,-0.000413562200265005,0,
00:00:01.348,-0.000561648630537093,0,
00:00:01.352,-0.000387740641599521,0,
00:00:01.356,0.00196945411153138,0,
00:00:01.36,-0.00186398287769407,0,
00:00:01.364,-0.00144757167436182,0,
00:00:01.368,-0.00209166365675628,0,
00:00:01.372,0.00289110955782235,0,
00:00:01.376,0.00266000325791538,0,
00:00:01.38,0.0028295093216002,0,
00:00:01.384,-0.00279299193061888,0,
00:00:01.388,-0.00300457095727324,0,
00:00:01.392,-0.0012225853279233,0,
00:00:01.396,-0.001604282297194,0,
00:00:01.4,0.00320976274088025,0,
00:00:01.404,0.00481709092855453,0,
00:00:01.408,-0.00129021378234029,0,
00:00:01.412,-0.00256487727165222,0,
00:00:01.416,-0.00160694355145097,0,
00:00:01.42,-0.000211533581023104,0,
00:00:01.424,0.000689374923240393,0,
00:00:01.428,0.000882119580637664,0,
00:00:01.432,0.000583339657168835,0,
00:00:01.436,0.000137484166771173,0,
00:00:01.44,-0.000193336411030032,0,
00:00:01.444,-0.000308975577354431,0,
00:00:01.448,-0.000246061244979501,0,
00:00:01.452,-0.000104342012491543,0,
00:00:01.456,0.00209894240833819,0,
00:00:01.46,-0.00396332331001759,0,
00:00:01.464,0.00249696592800319,0,
00:00:01.468,-0.000460058188764378,0,
00:00:01.472,-0.000615590543020517,0,
00:00:01.476,-1.38045897983829E-05,0,
00:00:01.48,0.000416738475905731,0,
00:00:01.484,0.000457988237030804,0,
00:00:01.488,0.000240857974858955,0,
00:00:01.492,-2.22532416955801E-05,0,
00:00:01.496,-0.000185720302397385,0,
00:00:01.5,-0.000211294129258022,0,
00:00:01.504,-0.000139885043608956,0,
00:00:01.508,-3.97659714508336E-05,0,
00:00:01.512,3.53126342815813E-05,0,
00:00:01.516,6.39463323750533E-05,0,
00:00:01.52,5.32547164766584E-05,0,
00:00:01.524,2.41776870097965E-05,0,
00:00:01.528,-3.17414605888189E-06,0,
00:00:01.532,-1.77838992385659E-05,0,
00:00:01.536,-1.86773813766195E-05,0,
00:00:01.54,-1.11718400148675E-05,0,
00:00:01.544,-1.98146653929143E-06,0,
00:00:01.548,4.2451742956473E-06,0,
00:00:01.552,6.06338608122314E-06,0,
00:00:01.556,4.52224639957421E-06,0,
00:00:01.56,1.67840414633247E-06,0,
00:00:01.564,-7.05745776485855E-07,0,
00:00:01.568,-1.79695109636668E-06,0,
00:00:01.572,-1.6632753840895E-06,0,
00:00:01.576,-8.70663257046544E-07,0,
00:00:01.58,-3.31388925189913E-08,0,
00:00:01.584,4.70904154781238E-07,0,
00:00:01.588,5.63412015708309E-07,0,
00:00:01.592,3.75506147065607E-07,0,
00:00:01.596,1.04318750970833E-07,0,
00:00:01.6,-9.90887087937153E-08,0,
00:00:01.604,-1.75485070030845E-07,0,
00:00:01.608,-1.44786326927715E-07,0,
00:00:01.612,0.00207571545615792,0,
00:00:01.616,-0.00197531236335635,0,
00:00:01.62,-0.00371777359396219,0,
00:00:01.624,0.00179833511356264,0,
00:00:01.628,0.00248480821028352,0,
00:00:01.632,0.00120467646047473,0,
00:00:01.636,-0.000212182727409527,0,
00:00:01.64,-0.00302176247350872,0,
00:00:01.644,0.00311953760683537,0,
00:00:01.648,-0.000823848356958479,0,
00:00:01.652,-0.00146637461148202,0,
00:00:01.656,-0.000723383272998035,0,
00:00:01.66,0.00016357826825697,0,
00:00:01.664,0.000628524634521455,0,
00:00:01.668,0.000613279815297574,0,
00:00:01.672,0.000321877509122714,0,
00:00:01.676,4.49537829183555E-08,0,
00:00:01.68,-0.000195647167856805,0,
00:00:01.684,0.00184602732770145,0,
00:00:01.688,-0.00212795659899712,0,
00:00:01.692,-0.00168463075533509,0,
00:00:01.696,-0.000137160430313088,0,
00:00:01.7,0.000913685536943376,0,
00:00:01.704,0.0010862973285839,0,
00:00:01.708,0.000656866643112153,0,
00:00:01.712,7.77609820943326E-05,0,
00:00:01.716,-0.000320874620229006,0,
00:00:01.72,-0.000429582694778219,0,
00:00:01.724,-0.000314626144245267,0,
00:00:01.728,-0.00219036429189146,0,
00:00:01.732,0.00410199305042624,0,
00:00:01.736,-0.000207604156457819,0,
00:00:01.74,0.000726253492757678,0,
00:00:01.744,-0.00501089124009013,0,
00:00:01.748,0.000150200692587532,0,
00:00:01.752,0.00390490586869419,0,
00:00:01.756,0.00163001695182174,0,
00:00:01.76,-0.00515150092542171,0,
00:00:01.764,-0.000139974858029746,0,
00:00:01.768,0.00165930727962404,0,
00:00:01.772,0.00148711795918643,0,
00:00:01.776,0.000558948027901351,0,
00:00:01.78,0.00179851416032761,0,
00:00:01.784,-0.00470343325287104,0,
00:00:01.788,-0.000250768614932895,0,
00:00:01.792,0.00117955019231886,0,
00:00:01.796,0.00103684258647263,0,
00:00:01.8,0.00245030457153916,0,
00:00:01.804,-0.00216184137389064,0,
00:00:01.808,-0.00205795839428902,0,
00:00:01.812,-0.00260473880916834,0,
00:00:01.816,0.00474373530596495,0,
00:00:01.82,0.000734178815037012,0,
00:00:01.824,-0.000696994888130575,0,
00:00:01.828,-0.000801018381025642,0,
00:00:01.832,-0.000407294370234013,0,
00:00:01.836,-1.0294637604602E-06,0,
00:00:01.84,0.0002130721550202,0,
00:00:01.844,0.000225147232413292,0,
00:00:01.848,0.000121584540465847,0,
00:00:01.852,1.2319608231337E-06,0,
00:00:01.856,-7.33024207875133E-05,0,
00:00:01.86,-8.69362484081648E-05,0,
00:00:01.864,-5.81188432988711E-05,0,
00:00:01.868,-1.64493740157923E-05,0,
00:00:01.872,1.49777479236946E-05,0,
00:00:01.876,2.69498850684613E-05,0,
00:00:01.88,0.0020981808193028,0,
00:00:01.884,-0.00404096767306328,0,
00:00:01.888,0.000331896648276597,0,
00:00:01.892,0.0035332643892616,0,
00:00:01.896,-0.00303920637816191,0,
00:00:01.9,0.00258925533853471,0,
00:00:01.904,-0.000908211630303413,0,
00:00:01.908,-0.00324514973908663,0,
00:00:01.912,0.00160308449994773,0,
00:00:01.916,0.00405748514458537,0,
00:00:01.92,-0.0012123070191592,0,
00:00:01.924,-0.00412310101091862,0,
00:00:01.928,0.000902273517567664,0,
00:00:01.932,0.00380767160095274,0,
00:00:01.936,0.000995599199086428,0,
00:00:01.94,-0.00580040737986565,0,
00:00:01.944,-0.000475843349704519,0,
00:00:01.948,0.00168287241831422,0,
00:00:01.952,0.00172979675699025,0,
00:00:01.956,0.000835299550089985,0,
00:00:01.96,-9.54853749135509E-05,0,
00:00:01.964,-0.00060217414284125,0,
00:00:01.968,-0.000631836010143161,0,
00:00:01.972,-0.000369878398487344,0,
00:00:01.976,-5.25421346537769E-05,0,
00:00:01.98,0.000158530645421706,0,
00:00:01.984,0.00021529768127948,0,
00:00:01.988,0.000156630019773729,0,
00:00:01.992,5.52674464415759E-05,0,
00:00:01.996,-0.00210346723906696,0,
00:00:02,0.0019110202556476,0,
00:00:02.004,0.00365971913561225,0,
00:00:02.008,-0.00182781426701695,0,
00:00:02.012,-0.00248491950333118,0,
00:00:02.016,-0.00118756806477904,0,
00:00:02.02,0.000232011137995869,0,
00:00:02.024,0.000958883843850344,0,
00:00:02.028,0.0009348732419312,0,
00:00:02.032,-0.00158893433399498,0,
00:00:02.036,0.00404623663052917,0,
00:00:02.04,-0.000634696858469397,0,
00:00:02.044,-0.00389142148196697,0,
00:00:02.048,0.000724536774214357,0,
00:00:02.052,0.00347031885758042,0,
00:00:02.056,-0.00133864453528076,0,
00:00:02.06,-0.00182698480784893,0,
00:00:02.064,-0.000732761400286108,0,
00:00:02.068,0.000359546742402017,0,
00:00:02.072,0.000832850812003016,0,
00:00:02.076,0.000711036205757409,0,
00:00:02.08,0.000300364656141028,0,
00:00:02.084,-9.00004670256749E-05,0,
00:00:02.088,-0.00236667110584676,0,
00:00:02.092,0.00168661191128194,0,
00:00:02.096,0.00147643638774753,0,
00:00:02.1,0.000153800327097997,0,
00:00:02.104,-0.000772918108850718,0,
00:00:02.108,-0.000933380157221109,0,
00:00:02.112,-0.000562460452783853,0,
00:00:02.116,-5.80694941163529E-05,0,
00:00:02.12,0.000288446724880487,0,
00:00:02.124,0.0024564010091126,0,
00:00:02.128,-0.00169828801881522,0,
00:00:02.132,-0.00154225050937384,0,
00:00:02.136,-0.000223031791392714,0,
00:00:02.14,0.00073136854916811,0,
00:00:02.144,0.000925821717828512,0,
00:00:02.148,0.000578000152017921,0,
00:00:02.152,8.04283627076074E-05,0,
00:00:02.156,-0.000271710479864851,0,
00:00:02.16,-0.000374364608433098,0,
00:00:02.164,-0.000279595231404528,0,
00:00:02.168,0.00196937005966902,0,
00:00:02.172,-0.00193547667004168,0,
00:00:02.176,-0.00360968848690391,0,
00:00:02.18,0.00189995660912246,0,
00:00:02.184,0.00461485236883163,0,
00:00:02.188,-0.000767332327086478,0,
00:00:02.192,-0.00395788066089153,0,
00:00:02.196,0.000818176136817783,0,
00:00:02.2,0.00153009791392833,0,
00:00:02.204,0.00070735823828727,0,
00:00:02.208,-0.000207813136512414,0,
00:00:02.212,-0.000639013829641044,0,
00:00:02.216,-0.000574224512092769,0,
00:00:02.22,0.00182072131428868,0,
00:00:02.224,-0.0039885900914669,0,
00:00:02.228,-0.00150983757339418,0,
00:00:02.232,0.00575360469520092,0,
00:00:02.236,0.000826966133899987,0,
00:00:02.24,-0.00125597103033215,0,
00:00:02.244,-0.00147093192208558,0,
00:00:02.248,-0.00288618775084615,0,
00:00:02.252,0.0019328115740791,0,
00:00:02.256,0.00206203223206103,0,
00:00:02.26,0.000675236107781529,0,
00:00:02.264,0.00155347341205925,0,
00:00:02.268,-0.00292995059862733,0,
00:00:02.272,-0.00445449957624078,0,
00:00:02.276,0.00154991040471941,0,
00:00:02.28,0.00265464978292584,0,
00:00:02.284,0.00155938777606934,0,
00:00:02.288,0.00218000961467624,0,
00:00:02.292,-0.00483664637431502,0,
00:00:02.296,-0.000597231963183731,0,
00:00:02.3,0.00088196515571326,0,
00:00:02.304,0.000910915259737521,0,
00:00:02.308,0.000411118264310062,0,
00:00:02.312,-6.68493521516211E-05,0,
00:00:02.316,-0.000297526828944683,0,
00:00:02.32,-0.000284604902844876,0,
00:00:02.324,-0.00014144454326015,0,
00:00:02.328,1.04528116935398E-05,0,
00:00:02.332,9.84142970992252E-05,0,
00:00:02.336,0.000109144624730106,0,
00:00:02.34,6.91174791427329E-05,0,
00:00:02.344,1.61857369676E-05,0,
00:00:02.348,-2.1704938262701E-05,0,
00:00:02.352,-3.45629086950794E-05,0,
00:00:02.356,-0.00210303976200521,0,
00:00:02.36,0.00196402706205845,0,
00:00:02.364,0.00372070702724159,0,
00:00:02.368,-0.00178835075348616,0,
00:00:02.372,-0.00247499090619385,0,
00:00:02.376,-0.00119917432311922,0,
00:00:02.38,0.00021279753127601,0,
00:00:02.384,0.00301925512030721,0,
00:00:02.388,-0.00312279397621751,0,
00:00:02.392,0.000821552705019712,0,
00:00:02.396,0.00146562687586993,0,
00:00:02.4,0.000723862089216709,0,
00:00:02.404,-0.000162587821250781,0,
00:00:02.408,-0.000627660425379872,0,
00:00:02.412,-0.000612860661931336,0,
00:00:02.416,-0.000321898638503626,0,
00:00:02.42,-3.14529842171396E-07,0,
00:00:02.424,0.000195348096895032,0,
00:00:02.428,0.00022956490283832,0,
00:00:02.432,0.000152592023368925,0,
00:00:02.436,0.0021184291690588,0,
00:00:02.44,-0.00409088516607881,0,
00:00:02.444,0.000262403395026922,0,
00:00:02.448,0.0014063703129068,0,
00:00:02.452,0.000993462512269616,0,
00:00:02.456,0.000188776422874071,0,
00:00:02.46,-0.000377209391444921,0,
00:00:02.464,-0.000528226548340172,0,
00:00:02.468,-0.000370391440810636,0,
00:00:02.472,-0.000105829756648745,0,
00:00:02.476,0.000101766083389521,0,
00:00:02.48,0.000183121039299294,0,
00:00:02.484,0.00015364088176284,0,
00:00:02.488,7.10090971551836E-05,0,
00:00:02.492,-7.63829575589625E-06,0,
00:00:02.496,-5.03285191371106E-05,0,
00:00:02.5,0.00202208431437612,0,
00:00:02.504,-0.00200794520787895,0,
00:00:02.508,-0.00164834456518292,0,
00:00:02.512,-0.00016524872626178,0,
00:00:02.516,0.000860036525409669,0,
00:00:02.52,0.00104072422254831,0,
00:00:02.524,0.000635569274891168,0,
00:00:02.528,7.97930406406522E-05,0,
00:00:02.532,-0.000306080706650391,0,
00:00:02.536,-0.000413684319937602,0,
00:00:02.54,-0.000304912799037993,0,
00:00:02.544,-0.000112660971353762,0,
00:00:02.548,4.74315929750446E-05,0,
00:00:02.552,0.000120554279419594,0,
00:00:02.556,0.000111584638943896,0,
00:00:02.56,5.84819208597764E-05,0,
00:00:02.564,2.3597531253472E-06,0,
00:00:02.568,-3.14438439090736E-05,0,
00:00:02.572,-3.76905227312818E-05,0,
00:00:02.576,-0.00210092682391405,0,
00:00:02.58,0.00404409598559141,0,
00:00:02.584,-0.000326666369801387,0,
00:00:02.588,-0.0014532667119056,0,
00:00:02.592,-0.00101008056662977,0,
00:00:02.596,-0.000180564340553246,0,
00:00:02.6,0.000396406394429505,0,
00:00:02.604,0.000545597518794239,0,
00:00:02.608,0.000379230885300785,0,
00:00:02.612,-0.00196989788673818,0,
00:00:02.616,0.00394422700628638,0,
00:00:02.62,-0.000522333953995258,0,
00:00:02.624,-0.00162251212168485,0,
00:00:02.628,-0.00109177979175001,0,
00:00:02.632,-0.00225193030200899,0,
00:00:02.636,0.00450036441907287,0,
00:00:02.64,0.000270819058641791,0,
00:00:02.644,-0.00312485732138157,0,
00:00:02.648,0.00314540835097432,0,
00:00:02.652,-0.00271281460300088,0,
00:00:02.656,0.000699700089171529,0,
00:00:02.66,0.000999142648652196,0,
00:00:02.664,0.00029691684176214,0,
00:00:02.668,-0.000327305111568421,0,
00:00:02.672,-0.00260345521382988,0,
00:00:02.676,0.00159801298286766,0,
00:00:02.68,0.001545833889395,0,
00:00:02.684,0.000305113004287705,0,
00:00:02.688,-0.000628928712103516,0,
00:00:02.692,-0.000851152348332107,0,
00:00:02.696,-0.000549968215636909,0,
00:00:02.7,-9.11884344532155E-05,0,
00:00:02.704,0.00024297580239363,0,
00:00:02.708,-0.0017283569322899,0,
00:00:02.712,0.00431632390245795,0,
00:00:02.716,-0.000227758820983581,0,
00:00:02.72,-0.0014974947553128,0,
00:00:02.724,0.000956878182478249,0,
00:00:02.728,-0.00433157524093986,0,
00:00:02.732,0.000677829317282885,0,
00:00:02.736,0.00200906721875072,0,
00:00:02.74,0.00142752658575773,0,
00:00:02.744,0.000324612570693716,0,
00:00:02.748,-0.000481545604998246,0,
00:00:02.752,-0.000731863954570144,0,
00:00:02.756,-0.000546230468899012,0,
00:00:02.76,-0.000190484977792948,0,
00:00:02.764,0.000106621577288024,0,
00:00:02.768,0.00231399550102651,0,
00:00:02.772,-0.00383663247339427,0,
00:00:02.776,0.00251814560033381,0,
00:00:02.78,-0.000509525474626571,0,
00:00:02.784,-0.000685117556713521,0,
00:00:02.788,-6.52262169751339E-05,0,
00:00:02.792,-0.00167781370691955,0,
00:00:02.796,0.00244167889468372,0,
00:00:02.8,0.00190353731159121,0,
00:00:02.804,0.00224950769916177,0,
00:00:02.808,-0.00299396459013224,0,
00:00:02.812,-0.00495649175718427,0,
00:00:02.816,0.00309817376546562,0,
00:00:02.82,0.000381585618015379,0,
00:00:02.824,-0.00218110508285463,0,
00:00:02.828,0.00205780612304807,0,
00:00:02.832,-0.000180193761480041,0,
00:00:02.836,0.0044629224576056,0,
00:00:02.84,-0.00108365353662521,0,
00:00:02.844,-0.00254834233783185,0,
00:00:02.848,-0.00178423663601279,0,
00:00:02.852,0.00167888437863439,0,
00:00:02.856,-0.00135336874518543,0,
00:00:02.86,-0.00277331005781889,0,
00:00:02.864,0.004587696865201,0,
00:00:02.868,0.000770571816246957,0,
00:00:02.872,-0.000559735461138189,0,
00:00:02.876,-0.00276255840435624,0,
00:00:02.88,0.0036740368232131,0,
00:00:02.884,-0.00245596910826862,0,
00:00:02.888,0.00272082630544901,0,
00:00:02.892,-0.00119527475908399,0,
00:00:02.896,-0.00363768264651299,0,
00:00:02.9,0.00135387643240392,0,
00:00:02.904,0.00402803439646959,0,
00:00:02.908,-0.00108297809492797,0,
00:00:02.912,-0.00187146407552063,0,
00:00:02.916,-0.000941247912123799,0,
00:00:02.92,0.000141008436912671,0,
00:00:02.924,0.000700716860592365,0,
00:00:02.928,0.000685603299643844,0,
00:00:02.932,0.000348090892657638,0,
00:00:02.936,-2.00058493646793E-05,0,
00:00:02.94,-0.000237916159676388,0,
00:00:02.944,-0.000268420262727886,0,
00:00:02.948,-0.000173130392795429,0,
00:00:02.952,0.00203199242241681,0,
00:00:02.956,-0.00192484131548554,0,
00:00:02.96,-0.00363388890400529,0,
00:00:02.964,0.00186577567365021,0,
00:00:02.968,0.00251370342448354,0,
00:00:02.972,0.00119864277075976,0,
00:00:02.976,-0.00023603843874298,0,
00:00:02.98,-0.000970007677096874,0,
00:00:02.984,-0.000945366860833019,0,
00:00:02.988,-0.000492462480906397,0,
00:00:02.992,0.00208029430359602,0,
00:00:02.996,-0.00167102657724172,0,
00:00:03,-0.00128787499852479,0,
00:00:03.004,5.6369710364379E-05,0,
00:00:03.008,0.000906044442672282,0,
00:00:03.012,0.000964473118074238,0,
00:00:03.016,0.000520576373673975,0,
00:00:03.02,-8.5040937847225E-06,0,
00:00:03.024,-0.000340876082191244,0,
00:00:03.028,-0.0024780489038676,0,
00:00:03.032,0.00377971376292408,0,
00:00:03.036,-0.000413892848882824,0,
00:00:03.04,-0.00140015734359622,0,
00:00:03.044,-0.000897842517588288,0,
00:00:03.048,-8.19081906229258E-05,0,
00:00:03.052,0.000444815814262256,0,
00:00:03.056,0.00054388161515817,0,
00:00:03.06,0.000348969275364652,0,
00:00:03.064,7.19409654266201E-05,0,
00:00:03.068,-0.00220416206866503,0,
00:00:03.072,0.00178127433173358,0,
00:00:03.076,0.00149134488310665,0,
00:00:03.08,0.00011581985745579,0,
00:00:03.084,-0.000825506984256208,0,
00:00:03.088,0.0011038287775591,0,
00:00:03.092,-0.00255161500535905,0,
00:00:03.096,-0.00169355259276927,0,
00:00:03.1,0.000127066552522592,0,
00:00:03.104,0.00123760488349944,0,
00:00:03.108,0.00131196936126798,0,
00:00:03.112,0.000730458821635693,0,
00:00:03.116,-0.00204425887204707,0,
00:00:03.12,0.00363389030098915,0,
00:00:03.124,-0.000847170944325626,0,
00:00:03.128,-0.00182076566852629,0,
00:00:03.132,-0.00113262922968715,0,
00:00:03.136,-0.00218376563861966,0,
00:00:03.14,0.00252710189670324,0,
00:00:03.144,0.0023247366771102,0,
00:00:03.148,0.00269963871687651,0,
00:00:03.152,-0.00271421484649181,0,
00:00:03.156,-0.00281840399838984,0,
00:00:03.16,-0.00311958021484315,0,
00:00:03.164,0.00254890322685242,0,
00:00:03.168,0.00496737658977509,0,
00:00:03.172,-0.000740698887966573,0,
00:00:03.176,-0.00203359522856772,0,
00:00:03.18,-0.0013261444400996,0,
00:00:03.184,-0.000204681346076541,0,
00:00:03.188,0.000529575219843537,0,
00:00:03.192,0.000691915105562657,0,
00:00:03.196,-0.00161935191135854,0,
00:00:03.2,0.00415300158783793,0,
00:00:03.204,-0.00256932526826859,0,
00:00:03.208,0.000260369677562267,0,
00:00:03.212,0.000425078993430361,0,
00:00:03.216,-9.02486863196827E-05,0,
00:00:03.22,-0.000425715174060315,0,
00:00:03.224,-0.000407500949222595,0,
00:00:03.228,-0.000177235691808164,0,
00:00:03.232,6.62681413814425E-05,0,
00:00:03.236,0.000199386922759004,0,
00:00:03.24,0.000201355185708962,0,
00:00:03.244,0.000120416334539186,0,
00:00:03.248,2.30892019317253E-05,0,
00:00:03.252,-4.31923326686956E-05,0,
00:00:03.256,-0.00213907635770738,0,
00:00:03.26,0.00400320719927549,0,
00:00:03.264,-0.000351645867340267,0,
00:00:03.268,-0.0014582509174943,0,
00:00:03.272,-0.00100125302560627,0,
00:00:03.276,-0.000167462829267606,0,
00:00:03.28,0.000406374485464767,0,
00:00:03.284,0.000549449236132205,0,
00:00:03.288,0.000377850461518392,0,
00:00:03.292,0.000102034508017823,0,
00:00:03.296,0.00196526688523591,0,
00:00:03.3,-0.00216632941737771,0,
00:00:03.304,-0.00179967866279185,0,
00:00:03.308,-0.000248050811933354,0,
00:00:03.312,-0.00122307415585965,0,
00:00:03.316,0.00513176061213017,0,
00:00:03.32,0.00035273190587759,0,
00:00:03.324,-0.00135026837233454,0,
00:00:03.328,-0.00131496915128082,0,
00:00:03.332,0.00146934646181762,0,
00:00:03.336,-0.00189859862439334,0,
00:00:03.34,-0.00329482182860374,0,
00:00:03.344,0.00222210679203272,0,
00:00:03.348,0.00271374452859163,0,
00:00:03.352,0.00121396442409605,0,
00:00:03.356,-0.000338927551638335,0,
00:00:03.36,-0.00109938601963222,0,
00:00:03.364,-0.00103523838333786,0,
00:00:03.368,-0.000520789937581867,0,
00:00:03.372,2.43303984461818E-05,0,
00:00:03.376,0.000343777675880119,0,
00:00:03.38,0.000388215150451288,0,
00:00:03.384,0.000249668228207156,0,
00:00:03.388,0.00213797180913389,0,
00:00:03.392,-0.00412505865097046,0,
00:00:03.396,0.000211474311072379,0,
00:00:03.4,0.00344327581115067,0,
00:00:03.404,-0.000997002352960408,0,
00:00:03.408,-0.00144803430885077,0,
00:00:03.412,-0.000539351778570563,0,
00:00:03.416,-0.0017471241299063,0,
00:00:03.42,0.00264019588939846,0,
00:00:03.424,0.00216732057742774,0,
00:00:03.428,0.000356635631760582,0,
00:00:03.432,-0.000965351762715727,0,
00:00:03.436,0.000789647281635553,0,
00:00:03.44,-0.00491398759186268,0,
00:00:03.444,0.000132238827063702,0,
00:00:03.448,0.0038390199188143,0,
00:00:03.452,-0.00048016823711805,0,
00:00:03.456,-0.00315212039276958,0,
00:00:03.46,0.00156552903354168,0,
00:00:03.464,0.00190378469415009,0,
00:00:03.468,0.000688997737597674,0,
00:00:03.472,-0.00253079808317125,0,
00:00:03.476,0.00105772714596242,0,
00:00:03.48,0.000888898503035307,0,
00:00:03.484,-0.000122436889796518,0,
00:00:03.488,0.00134868558961898,0,
00:00:03.492,-0.00475874915719032,0,
00:00:03.496,0.00208582170307636,0,
00:00:03.5,-0.00249766884371638,0,
00:00:03.504,0.00167157920077443,0,
00:00:03.508,0.00197977153584361,0,
00:00:03.512,0.000823504582513124,0,
00:00:03.516,-0.000322646781569347,0,
00:00:03.52,0.00122709071729332,0,
00:00:03.524,-0.0048116622492671,0,
00:00:03.528,0.00205334555357695,0,
00:00:03.532,-0.000459735019830987,0,
00:00:03.536,-0.00242262310348451,0,
00:00:03.54,0.00227602734230459,0,
00:00:03.544,0.00226671481505036,0,
00:00:03.548,0.000691933499183506,0,
00:00:03.552,-0.000657582131680101,0,
00:00:03.556,-0.00114752177614719,0,
00:00:03.56,-0.000896538607776165,0,
00:00:03.564,-0.000328608963172883,0,
00:00:03.568,0.000166834986885078,0,
00:00:03.572,0.000396590039599687,0,
00:00:03.576,0.000366038788342848,0,
00:00:03.58,0.000193168001715094,0,
00:00:03.584,0.00208563846535981,0,
00:00:03.588,-0.00207672244869173,0,
00:00:03.592,-0.00176496536005288,0,
00:00:03.596,-0.00233557773754001,0,
00:00:03.6,0.00487007293850183,0,
00:00:03.604,0.000715272151865065,0,
00:00:03.608,-0.000796389125753194,0,
00:00:03.612,-0.00298216682858765,0,
00:00:03.616,0.00150382530409843,0,
00:00:03.62,0.00162828655447811,0,
00:00:03.624,0.0004129322769586,0,
00:00:03.628,-0.000583759509027004,0,
00:00:03.632,-0.000880291045177728,0,
00:00:03.636,-0.000619343132711947,0,
00:00:03.64,-0.000158483861014247,0,
00:00:03.644,-0.00187162542715669,0,
00:00:03.648,0.0023167235776782,0,
00:00:03.652,0.00399868981912732,0,
00:00:03.656,-0.00167113763745874,0,
00:00:03.66,-0.00250138575211167,0,
00:00:03.664,-0.00129806157201529,0,
00:00:03.668,0.000113958594738506,0,
00:00:03.672,0.000887055590283126,0,
00:00:03.676,0.000920881924685091,0,
00:00:03.68,0.000512659084051847,0,
00:00:03.684,3.31227820424829E-05,0,
00:00:03.688,-0.000272632867563516,0,
00:00:03.692,-0.000339602236635983,0,
00:00:03.696,-0.000235098981647752,0,
00:00:03.7,-7.37815134925768E-05,0,
00:00:03.704,5.2050356316613E-05,0,
00:00:03.708,0.000103277641755994,0,
00:00:03.712,8.8916189270094E-05,0,
00:00:03.716,4.23620876972564E-05,0,
00:00:03.72,-3.03574688587105E-06,0,
00:00:03.724,-2.82683831756003E-05,0,
00:00:03.728,-3.08763737848494E-05,0,
00:00:03.732,-0.00209491630084813,0,
00:00:03.736,0.00404705293476582,0,
00:00:03.74,-0.000326766108628362,0,
00:00:03.744,-0.00145511142909527,0,
00:00:03.748,-0.0010121533414349,0,
00:00:03.752,-0.000181880182935856,0,
00:00:03.756,0.000396098505007103,0,
00:00:03.76,-0.0015297686913982,0,
00:00:03.764,0.00443099159747362,0,
00:00:03.768,-0.000226878997636959,0,
00:00:03.772,-0.00364744616672397,0,
00:00:03.776,0.000766438373830169,0,
00:00:03.78,0.00337522779591382,0,
00:00:03.784,-0.00147340795956552,0,
00:00:03.788,-0.00192723772488534,0,
00:00:03.792,-0.000769834092352539,0,
00:00:03.796,0.000375328818336129,0,
00:00:03.8,0.000872762582730502,0,
00:00:03.804,0.00074791832594201,0,
00:00:03.808,-0.00175614492036402,0,
00:00:03.812,0.00188601692207158,0,
00:00:03.816,0.001340685877949,0,
00:00:03.82,0.00195161066949368,0,
00:00:03.824,-0.00299198110587895,0,
00:00:03.828,-0.00269521377049387,0,
00:00:03.832,-0.000735578418243676,0,
00:00:03.836,0.00293499580584466,0,
00:00:03.84,-0.00265116826631129,0,
00:00:03.844,-0.000678012089338154,0,
00:00:03.848,0.00588736776262522,0,
00:00:03.852,-0.00160713505465537,0,
00:00:03.856,0.002289526630193,0,
00:00:03.86,-0.00218481314368546,0,
00:00:03.864,-0.00242179771885276,0,
00:00:03.868,-0.00100957474205643,0,
00:00:03.872,0.000381452933652326,0,
00:00:03.876,0.00103357282932848,0,
00:00:03.88,0.000943583203479648,0,
00:00:03.884,0.0004606171278283,0,
00:00:03.888,-3.58735269401222E-05,0,
00:00:03.892,-0.000319645507261157,0,
00:00:03.896,-0.000352535367710516,0,
00:00:03.9,-0.000222136412048712,0,
00:00:03.904,0.00202467199414968,0,
00:00:03.908,-0.00398041121661663,0,
00:00:03.912,0.000444827281171456,0,
00:00:03.916,0.00362834217958152,0,
00:00:03.92,-0.00299538183026016,0,
00:00:03.924,0.000508519762661308,0,
00:00:03.928,0.0010357660939917,0,
00:00:03.932,0.000439364317571744,0,
00:00:03.936,0.00186043279245496,0,
00:00:03.94,-0.00455797137692571,0,
00:00:03.944,-0.000100978468253743,0,
00:00:03.948,0.00128266413230449,0,
00:00:03.952,0.00107784115243703,0,
00:00:03.956,0.000366639287676662,0,
00:00:03.96,-0.000217225708183832,0,
00:00:03.964,0.00162998901214451,0,
00:00:03.968,-0.0023434532340616,0,
00:00:03.972,-0.00386909395456314,0,
00:00:03.976,0.00184623908717185,0,
00:00:03.98,0.00263227941468358,0,
00:00:03.984,0.00134860468097031,0,
00:00:03.988,0.00194421713240445,0,
00:00:03.992,-0.00291216955520213,0,
00:00:03.996,-0.00261018332093954,0,
00:00:04,-0.00279100611805916,0,
00:00:04.004,0.00278304144740105,0,
00:00:04.008,0.002955028321594,0,
00:00:04.012,0.00116299511864781,0,
00:00:04.016,-0.000515170919243246,0,
00:00:04.02,0.000824178336188197,0,
00:00:04.024,-0.00306940893642604,0,
00:00:04.028,-0.00420999666675925,0,
00:00:04.032,0.00396950542926788,0,
00:00:04.036,0.0029959708917886,0,
00:00:04.04,-0.00406393501907587,0,
00:00:04.044,0.000196694149053656,0,
00:00:04.048,0.00140614586416632,0,
00:00:04.052,0.00101955642458051,0,
00:00:04.056,0.000187678131624125,0,
00:00:04.06,-0.000419041462009773,0,
00:00:04.064,-0.000591445888858289,0,
00:00:04.068,0.00164864072576165,0,
00:00:04.072,-0.00418932409957051,0,
00:00:04.076,0.00250503444112837,0,
00:00:04.08,-0.000315477285766974,0,
00:00:04.084,-0.000451828353106976,0,
00:00:04.088,9.14311676751822E-05,0,
00:00:04.092,0.000442751392256469,0,
00:00:04.096,0.00250232685357332,0,
00:00:04.1,-0.00386178283952177,0,
00:00:04.104,0.000269859825493768,0,
00:00:04.108,0.00126185524277389,0,
00:00:04.112,0.000812412239611149,0,
00:00:04.116,5.97456746618263E-05,0,
00:00:04.12,-0.000422115816036239,0,
00:00:04.124,-0.00050519680371508,0,
00:00:04.128,-0.000317627360345796,0,
00:00:04.132,-5.83097098569851E-05,0,
00:00:04.136,0.000125858525279909,0,
00:00:04.14,0.000183202268090099,0,
00:00:04.144,0.000139667739858851,0,
00:00:04.148,5.48303942196071E-05,0,
00:00:04.152,0.00205762800760567,0,
00:00:04.156,-0.00202833348885179,0,
00:00:04.16,-0.00376846850849688,0,
00:00:04.164,0.00177075422834605,0,
00:00:04.168,0.0024825765285641,0,
00:00:04.172,0.00121821917127818,0,
00:00:04.176,-0.00019523617811501,0,
00:00:04.18,-0.00093432649737224,0,
00:00:04.184,-0.000928010558709502,0,
00:00:04.188,-0.000493279541842639,0,
00:00:04.192,-6.58040335110854E-06,0,
00:00:04.196,0.00029195609386079,0,
00:00:04.2,0.000346400571288541,0,
00:00:04.204,0.000231651240028441,0,
00:00:04.208,6.58222998026758E-05,0,
00:00:04.212,-5.92291944485623E-05,0,
00:00:04.216,-0.000106916428194381,0,
00:00:04.22,0.00198685843497515,0,
00:00:04.224,-0.00409134291112423,0,
00:00:04.228,0.00241454993374646,0,
00:00:04.232,-0.000480454735225067,0,
00:00:04.236,-0.000590986048337072,0,
00:00:04.24,2.65331855189288E-05,0,
00:00:04.244,0.000448943552328274,0,
00:00:04.248,0.000471600738819689,0,
00:00:04.252,0.000237748899962753,0,
00:00:04.256,-3.38063546223566E-05,0,
00:00:04.26,-0.000197249202756211,0,
00:00:04.264,-0.00021785669378005,0,
00:00:04.268,-0.000140724194352515,0,
00:00:04.272,-3.6897421523463E-05,0,
00:00:04.276,3.91174289688934E-05,0,
00:00:04.28,6.66643754811957E-05,0,
00:00:04.284,5.41696899745148E-05,0,
00:00:04.288,2.3645157853025E-05,0,
00:00:04.292,-4.32447632192634E-06,0,
00:00:04.296,-1.88014273589943E-05,0,
00:00:04.3,-1.91801755136112E-05,0,
00:00:04.304,-1.11576318886364E-05,0,
00:00:04.308,-1.6710034742573E-06,0,
00:00:04.312,4.59554030385334E-06,0,
00:00:04.316,-0.00206949352286756,0,
00:00:04.32,0.00405567791312933,0,
00:00:04.324,-0.000331670395098627,0,
00:00:04.328,-0.00354160135611892,0,
00:00:04.332,0.00302944425493479,0,
00:00:04.336,-0.000519877066835761,0,
00:00:04.34,-0.00106879719533026,0,
00:00:04.344,-0.00047087759594433,0,
00:00:04.348,0.000198260138859041,0,
00:00:04.352,-0.00157022126950324,0,
00:00:04.356,0.00241806032136083,0,
00:00:04.36,0.00183494633529335,0,
00:00:04.364,0.000126214727060869,0,
00:00:04.368,0.0010534948669374,0,
00:00:04.372,-0.00318450341001153,0,
00:00:04.376,-0.00237896433100104,0,
00:00:04.38,-0.000275989470537752,0,
00:00:04.384,-0.00088998069986701,0,
00:00:04.388,0.00347056216560304,0,
00:00:04.392,0.00261821481399238,0,
00:00:04.396,0.000386872095987201,0,
00:00:04.4,0.000878756458405405,0,
00:00:04.404,-0.0056240251287818,0,
00:00:04.408,-0.000726090976968408,0,
00:00:04.412,0.00120443932246417,0,
00:00:04.416,0.00136407371610403,0,
00:00:04.42,0.000748295453377068,0,
00:00:04.424,0.00213426724076271,0,
00:00:04.428,-0.00440079346299171,0,
00:00:04.432,-8.4872059233021E-05,0,
00:00:04.436,0.00327552715316415,0,
00:00:04.44,-0.00308584910817444,0,
00:00:04.444,0.000613914977293462,0,
00:00:04.448,0.00121197302360088,0,
00:00:04.452,0.000581864034757018,0,
00:00:04.456,0.00192217133007944,0,
00:00:04.46,-0.00249418732710183,0,
00:00:04.464,-0.00212628860026598,0,
00:00:04.468,0.00166564341634512,0,
00:00:04.472,-0.00110394123475999,0,
00:00:04.476,-0.00251276325434446,0,
00:00:04.48,0.0026209088973701,0,
00:00:04.484,0.00268618739210069,0,
00:00:04.488,0.000930281705223024,0,
00:00:04.492,-0.000660210906062275,0,
00:00:04.496,-0.00130909483414143,0,
00:00:04.5,-0.00316718593239784,0,
00:00:04.504,0.00151168880984187,0,
00:00:04.508,0.00176512263715267,0,
00:00:04.512,0.000601490901317447,0,
00:00:04.516,0.00165675650350749,0,
00:00:04.52,-0.00483520328998566,0,
00:00:04.524,-0.000262919114902616,0,
00:00:04.528,0.00128083443269134,0,
00:00:04.532,0.00118225580081344,0,
00:00:04.536,0.000493689090944827,0,
00:00:04.54,-0.000129394204122946,0,
00:00:04.544,-0.000417936826124787,0,
00:00:04.548,-0.000387181498808786,0,
00:00:04.552,0.00188617699313909,0,
00:00:04.556,-0.00196057092398405,0,
00:00:04.56,-0.00151052989531308,0,
00:00:04.564,-3.21854822686873E-05,0,
00:00:04.568,0.000933741452172399,0,
00:00:04.572,0.00104822055436671,0,
00:00:04.576,0.000601142412051558,0,
00:00:04.58,-0.00204016570933163,0,
00:00:04.584,0.00163831340614706,0,
00:00:04.588,0.00121844850946218,0,
00:00:04.592,-0.000121244476758875,0,
00:00:04.596,-0.000941945298109204,0,
00:00:04.6,-0.000968541135080159,0,
00:00:04.604,-0.000504406110849231,0,
00:00:04.608,-0.00204620789736509,0,
00:00:04.612,0.00440689641982317,0,
00:00:04.616,7.39323368179612E-05,0,
00:00:04.62,-0.00119661120697856,0,
00:00:04.624,-0.000945501495152712,0,
00:00:04.628,-0.000255314778769389,0,
00:00:04.632,-0.00180336635094136,0,
00:00:04.636,0.00449712062254548,0,
00:00:04.64,3.35044478561031E-06,0,
00:00:04.644,-0.00342593644745648,0,
00:00:04.648,0.00295969424769282,0,
00:00:04.652,-0.000671778514515609,0,
00:00:04.656,-0.00120510172564536,0,
00:00:04.66,-0.000540119304787368,0,
00:00:04.664,0.000197800545720384,0,
00:00:04.668,0.000545498041901737,0,
00:00:04.672,0.00048916699597612,0,
00:00:04.676,0.000223207083763555,0,
00:00:04.68,-4.29515275754966E-05,0,
00:00:04.684,-0.000188169025932439,0,
00:00:04.688,-0.000196104709175415,0,
00:00:04.692,-0.00219391193240881,0,
00:00:04.696,0.00195294932927936,0,
00:00:04.7,0.00376090593636036,0,
00:00:04.704,-0.00173543486744165,0,
00:00:04.708,-0.00243733753450215,0,
00:00:04.712,-0.00118659308645874,0,
00:00:04.716,0.000205329444725066,0,
00:00:04.72,-0.00114828115329146,0,
00:00:04.724,0.00496532628312707,0,
00:00:04.728,0.000148067105328664,0,
00:00:04.732,-0.00146414653863758,0,
00:00:04.736,0.000764418335165828,0,
00:00:04.74,-0.00250284909270704,0,
00:00:04.744,-0.00147248315624893,0,
00:00:04.748,0.000308616057736799,0,
00:00:04.752,0.00128517765551805,0,
00:00:04.756,0.00124159397091717,0,
00:00:04.76,-0.001464155735448,0,
00:00:04.764,0.00398213649168611,0,
00:00:04.768,-0.000798790657427162,0,
00:00:04.772,-0.00405224924907088,0,
00:00:04.776,0.00270651839673519,0,
00:00:04.78,-0.00267244270071387,0,
00:00:04.784,0.00100595760159194,0,
00:00:04.788,0.0034066173247993,0,
00:00:04.792,-0.00354942306876183,0,
00:00:04.796,4.88107216369826E-05,0,
00:00:04.8,0.000867149268742651,0,
00:00:04.804,0.000536348787136376,0,
00:00:04.808,7.13303779775742E-06,0,
00:00:04.812,-0.000301163410767913,0,
00:00:04.816,0.00175121484789997,0,
00:00:04.82,-0.00422630738466978,0,
00:00:04.824,0.000335588556481525,0,
00:00:04.828,0.00157812901306897,0,
00:00:04.832,0.00115289585664868,0,
00:00:04.836,0.000274111866019666,0,
00:00:04.84,-0.000371297035599127,0,
00:00:04.844,-0.000571155571378767,0,
00:00:04.848,-0.000423440738813952,0,
00:00:04.852,-0.000142040618811734,0,
00:00:04.856,9.0929475845769E-05,0,
00:00:04.86,0.00226754113100469,0,
00:00:04.864,-0.00388115202076733,0,
00:00:04.868,0.000418073293985799,0,
00:00:04.872,0.00146375130861998,0,
00:00:04.876,0.000968759180977941,0,
00:00:04.88,0.000126675397041254,0,
00:00:04.884,-0.000434520159615204,0,
00:00:04.888,0.00151765032205731,0,
00:00:04.892,-0.00234675058163702,0,
00:00:04.896,-0.00173158582765609,0,
00:00:04.9,-5.58516621822491E-05,0,
00:00:04.904,0.00103876693174243,0,
00:00:04.908,-0.000890948576852679,0,
00:00:04.912,0.00474923523142934,0,
00:00:04.916,-0.000265306065557525,0,
00:00:04.92,-0.00182130513712764,0,
00:00:04.924,-0.00148458278272301,0,
00:00:04.928,-0.00259530707262456,0,
00:00:04.932,0.00433106301352382,0,
00:00:04.936,0.000275281461654231,0,
00:00:04.94,-0.000945066509302706,0,
00:00:04.944,-0.0028638900257647,0,
00:00:04.948,0.00382242584601045,0,
00:00:04.952,-0.000125877006212249,0,
00:00:04.956,-0.00111119076609612,0,
00:00:04.96,-0.000752161024138331,0,
00:00:04.964,-0.00217175856232643,0,
00:00:04.968,0.00438695540651679,0,
00:00:04.972,8.92534299055114E-05,0,
00:00:04.976,-0.00119411177001894,0,
00:00:04.98,-0.000967669941019267,0,
00:00:04.984,-0.00029071417520754,0,
00:00:04.988,-0.00183511071372777,0,
00:00:04.992,0.00447961967438459,0,
00:00:04.996,-0.00207459181547165,0,
00:00:05,0.000632794166449457,0,
00:00:05.004,0.00263650878332555,0,
00:00:05.008,-0.00212954310700297,0,
00:00:05.012,-0.00222238269634545,0,
00:00:05.016,-0.000726352329365909,0,
00:00:05.02,0.000591879186686128,0,
00:00:05.024,0.00316750630736351,0,
00:00:05.028,-0.00110483262687922,0,
00:00:05.032,-0.00131090520881116,0,
00:00:05.036,-0.000325721979606897,0,
00:00:05.04,0.000465634511783719,0,
00:00:05.044,0.000673493894282728,0,
00:00:05.048,0.000439745635958388,0,
00:00:05.052,6.75636547384784E-05,0,
00:00:05.056,-0.000205866643227637,0,
00:00:05.06,-0.000290745549136773,0,
00:00:05.064,-0.000221441019675694,0,
00:00:05.068,-8.80828156368807E-05,0,
00:00:05.072,0.0021028162445873,0,
00:00:05.076,-0.00396847072988749,0,
00:00:05.08,0.000412987050367519,0,
00:00:05.084,0.00358462030999362,0,
00:00:05.088,-0.000951466208789498,0,
00:00:05.092,-0.0014780325582251,0,
00:00:05.096,-0.000600609695538878,0,
00:00:05.1,0.000275442842394114,0,
00:00:05.104,0.000639228033833206,0,
00:00:05.108,0.000526772113516927,0,
00:00:05.112,-0.00187945750076324,0,
00:00:05.116,0.00394693436101079,0,
00:00:05.12,-0.000580247433390468,0,
00:00:05.124,-0.00377057236619294,0,
00:00:05.128,0.000832357793115079,0,
00:00:05.132,0.00352428015321493,0,
00:00:05.136,-0.00133930623997003,0,
00:00:05.14,-0.001859275624156,0,
00:00:05.144,-0.000769663311075419,0,
00:00:05.148,0.000335806282237172,0,
00:00:05.152,0.000827007927000523,0,
00:00:05.156,-0.00135760894045234,0,
00:00:05.16,0.00436312705278397,0,
00:00:05.164,-0.0024897619150579,0,
00:00:05.168,0.000223349663428962,0,
00:00:05.172,0.000332652911311015,0,
00:00:05.176,-0.000176806832314469,0,
00:00:05.18,-0.000472234300104901,0,
00:00:05.184,-0.000410812004702166,0,
00:00:05.188,-0.000153895598486997,0,
00:00:05.192,9.5175753813237E-05,0,
00:00:05.196,0.000219148627365939,0,
00:00:05.2,0.000207291566766798,0,
00:00:05.204,-0.001960055436939,0,
00:00:05.208,0.00406530359759927,0,
00:00:05.212,0.00169178529176861,0,
00:00:05.216,-0.00558289559558034,0,
00:00:05.22,-0.000734024390112609,0,
00:00:05.224,0.00126420462038368,0,
00:00:05.228,0.00142622936982661,0,
00:00:05.232,0.000753916741814464,0,
00:00:05.236,3.33157527165895E-06,0,
00:00:05.24,0.00164351891726255,0,
00:00:05.244,-0.00454059243202209,0,
00:00:05.248,3.00737465295242E-05,0,
00:00:05.252,0.00140679767355323,0,
00:00:05.256,0.00113290699664503,0,
00:00:05.26,0.000351060385582969,0,
00:00:05.264,-0.000270686810836196,0,
00:00:05.268,-0.000499867892358452,0,
00:00:05.272,-0.000399878103053197,0,
00:00:05.276,-0.000156482827151194,0,
00:00:05.28,6.04786873736884E-05,0,
00:00:05.284,0.00224081450141966,0,
00:00:05.288,-0.00389421777799726,0,
00:00:05.292,0.000418609968619421,0,
00:00:05.296,0.00147201283834875,0,
00:00:05.3,0.000977989751845598,0,
00:00:05.304,0.00220828782767057,0,
00:00:05.308,-0.00240850285626948,0,
00:00:05.312,-0.00220203585922718,0,
00:00:05.316,-0.0005514026270248,0,
00:00:05.32,0.000750889885239303,0,
00:00:05.324,-0.000927903107367456,0,
00:00:05.328,0.00487795565277338,0,
00:00:05.332,-9.35651696636342E-05,0,
00:00:05.336,-0.00169759441632777,0,
00:00:05.34,-0.00144190213177353,0,
00:00:05.344,-0.000542521651368588,0,
00:00:05.348,0.000228430901188403,0,
00:00:05.352,0.00263824383728206,0,
00:00:05.356,-0.00355429504998028,0,
00:00:05.36,0.000565172580536455,0,
00:00:05.364,0.00143501465208828,0,
00:00:05.368,0.000845901435241103,0,
00:00:05.372,-3.47295947555892E-09,0,
00:00:05.376,-0.000509585719555616,0,
00:00:05.38,-0.000570923089981079,0,
00:00:05.384,-0.000342319894116372,0,
00:00:05.388,-4.84082265757024E-05,0,
00:00:05.392,0.000151710264617577,0,
00:00:05.396,0.000207254895940423,0,
00:00:05.4,0.00015232250734698,0,
00:00:05.404,5.53761565242894E-05,0,
00:00:05.408,-2.49259464908391E-05,0,
00:00:05.412,-6.11574505455792E-05,0,
00:00:05.416,-5.60957778361626E-05,0,
00:00:05.42,-2.90624248009408E-05,0,
00:00:05.424,-0.00207656482234597,0,
00:00:05.428,0.00199140352196991,0,
00:00:05.432,0.00166107574477792,0,
00:00:05.436,0.00226540025323629,0,
00:00:05.44,-0.00281465379521251,0,
00:00:05.444,-0.00267310184426606,0,
00:00:05.448,-0.000813551421742886,0,
00:00:05.452,0.000756199122406542,0,
00:00:05.456,0.00132647540885955,0,
00:00:05.46,0.00103982980363071,0,
00:00:05.464,0.000385708175599575,0,
00:00:05.468,-0.00018675034516491,0,
00:00:05.472,-0.00045399705413729,0,
00:00:05.476,-0.0024969233199954,0,
00:00:05.48,0.00175190879963338,0,
00:00:05.484,0.00370520516298711,0,
00:00:05.488,-0.00375816714949906,0,
00:00:05.492,-0.000368164735846221,0,
00:00:05.496,0.000532880192622542,0,
00:00:05.5,0.00249274540692568,0,
00:00:05.504,-0.00189585285261273,0,
00:00:05.508,-0.00178179144859314,0,
00:00:05.512,-0.000353584269760177,0,
00:00:05.516,0.000745760160498321,0,
00:00:05.52,0.00103434023912996,0,
00:00:05.524,-0.0013726040488109,0,
00:00:05.528,0.00214074435643852,0,
00:00:05.532,0.00347268022596836,0,
00:00:05.536,-0.00426689488813281,0,
00:00:05.54,-0.000825789931695908,0,
00:00:05.544,0.000299311941489577,0,
00:00:05.548,0.000413942587329075,0,
00:00:05.552,0.000212386148632504,0,
00:00:05.556,1.55914149218006E-05,0,
00:00:05.56,-7.47607555240393E-05,0,
00:00:05.564,-7.01844255672768E-05,0,
00:00:05.568,-2.18399454752216E-05,0,
00:00:05.572,2.39789369516075E-05,0,
00:00:05.576,4.42722848674748E-05,0,
00:00:05.58,3.86765495932195E-05,0,
00:00:05.584,1.93227715499233E-05,0,
00:00:05.588,0.0020756097510457,0,
00:00:05.592,-0.00198682770133018,0,
00:00:05.596,-0.00373105029575527,0,
00:00:05.6,0.00178970140404999,0,
00:00:05.604,0.00248257978819311,0,
00:00:05.608,0.00120714132208377,0,
00:00:05.612,0.00186774355825037,0,
00:00:05.616,-0.00291795819066465,0,
00:00:05.62,-0.00257216719910502,0,
00:00:05.624,-0.00274368026293814,0,
00:00:05.628,0.00281550642102957,0,
00:00:05.632,0.00296487309969962,0,
00:00:05.636,0.00115539121907204,0,
00:00:05.64,-0.000529708690010011,0,
00:00:05.644,-0.0012639481574297,0,
00:00:05.648,0.000975932576693594,0,
00:00:05.652,-0.00246693100780249,0,
00:00:05.656,-0.00361835933290422,0,
00:00:05.66,0.00221333559602499,0,
00:00:05.664,0.00498773111030459,0,
00:00:05.668,-0.00259328819811344,0,
00:00:05.672,0.000164539640536532,0,
00:00:05.676,0.00249713053926826,0,
00:00:05.68,-0.00410115765407681,0,
00:00:05.684,-7.50618710299023E-05,0,
00:00:05.688,0.00102876545861363,0,
00:00:05.692,0.000783612194936723,0,
00:00:05.696,0.000191693601664156,0,
00:00:05.7,0.00184003007598221,0,
00:00:05.704,-0.00233362917788327,0,
00:00:05.708,-0.00189499347470701,0,
00:00:05.712,-0.000244959490373731,0,
00:00:05.716,0.000920176855288446,0,
00:00:05.72,0.0011606237385422,0,
00:00:05.724,0.000740515359211713,0,
00:00:05.728,0.000131487351609394,0,
00:00:05.732,-0.000307583628455177,0,
00:00:05.736,-0.000445647194283083,0,
00:00:05.74,-0.000340989005053416,0,
00:00:05.744,0.00194010650739074,0,
00:00:05.748,-0.00400917651131749,0,
00:00:05.752,0.000460922135971487,0,
00:00:05.756,0.00158799346536398,0,
00:00:05.76,0.00316306320019066,0,
00:00:05.764,-0.00386008550412953,0,
00:00:05.768,-9.61698169703595E-05,0,
00:00:05.772,0.00087513611651957,0,
00:00:05.776,0.000608728732913733,0,
00:00:05.78,6.81553574395366E-05,0,
00:00:05.784,-0.000284133537206799,0,
00:00:05.788,-0.000346490123774856,0,
00:00:05.792,-0.000213265884667635,0,
00:00:05.796,-2.99844450637465E-05,0,
00:00:05.8,9.76772498688661E-05,0,
00:00:05.804,0.000134064815938473,0,
00:00:05.808,9.9339107691776E-05,0,
00:00:05.812,3.6942041333532E-05,0,
00:00:05.816,-1.52539896589587E-05,0,
00:00:05.82,-3.92123729398008E-05,0,
00:00:05.824,-3.64039660780691E-05,0,
00:00:05.828,-0.00209492887370288,0,
00:00:05.832,0.00197447370737791,0,
00:00:05.836,0.00165225216187537,0,
00:00:05.84,0.000189324826351367,0,
00:00:05.844,-0.000834513339214027,0,
00:00:05.848,-0.00102532061282545,0,
00:00:05.852,-0.000632701383437961,0,
00:00:05.856,-8.54884929140098E-05,0,
00:00:05.86,0.000297823513392359,0,
00:00:05.864,0.00040747580351308,0,
00:00:05.868,0.000302569213090464,0,
00:00:05.872,0.000113584435894154,0,
00:00:05.876,-4.49941180704627E-05,0,
00:00:05.88,-0.000118278352601919,0,
00:00:05.884,-0.000110380780824926,0,
00:00:05.888,-5.84221452299971E-05,0,
00:00:05.892,0.00207278528250754,0,
00:00:05.896,-0.00402042735368013,0,
00:00:05.9,0.000370453431969509,0,
00:00:05.904,0.00149000401142985,0,
00:00:05.908,0.00102691189385951,0,
00:00:05.912,0.000178523347130977,0,
00:00:05.916,0.00166717194952071,0,
00:00:05.92,-0.00460960296913981,0,
00:00:05.924,-5.37220294063445E-05,0,
00:00:05.928,0.00135769112966955,0,
00:00:05.932,0.00112954003270715,0,
00:00:05.936,0.000378129392629489,0,
00:00:05.94,-0.00023642617452424,0,
00:00:05.944,-0.0025514920707792,0,
00:00:05.948,0.00365922786295414,0,
00:00:05.952,-0.00049461581511423,0,
00:00:05.956,-0.00141481915488839,0,
00:00:05.96,-0.000863803550601006,0,
00:00:05.964,-3.24740140058566E-05,0,
00:00:05.968,-0.00159323844127357,0,
00:00:05.972,0.00253399834036827,0,
00:00:05.976,-8.97490463103168E-05,0,
00:00:05.98,0.00428563915193081,0,
00:00:05.984,-0.00131819886155427,0,
00:00:05.988,-0.00269420328550041,0,
00:00:05.992,-0.00180165888741612,0,
00:00:05.996,-0.000324111431837082,0,
00:00:06,0.000719890173058957,0,
00:00:06.004,0.00309242797084153,0,
00:00:06.008,-0.0033108436036855,0,
00:00:06.012,0.000583124754484743,0,
00:00:06.016,0.00131405843421817,0,
00:00:06.02,0.000695750175509602,0,
00:00:06.024,-0.000102808568044566,0,
00:00:06.028,-0.000540629611350596,0,
00:00:06.032,-0.000546725001186132,0,
00:00:06.036,-0.000296243350021541,0,
00:00:06.04,-9.34541640162934E-06,0,
00:00:06.044,0.000169884617207572,0,
00:00:06.048,0.000205403543077409,0,
00:00:06.052,0.000139553842018358,0,
00:00:06.056,4.17072260461282E-05,0,
00:00:06.06,-3.32499730575364E-05,0,
00:00:06.064,-6.27800254733302E-05,0,
00:00:06.068,-5.31021069036797E-05,0,
00:00:06.072,-2.46548916038591E-05,0,
00:00:06.076,2.55652253144945E-06,0,
00:00:06.08,1.73634980455972E-05,0,
00:00:06.084,1.85602857527556E-05,0,
00:00:06.088,0.00208706595003605,0,
00:00:06.092,-0.00404891930520535,0,
00:00:06.096,0.000329200993292034,0,
00:00:06.1,0.00145901588257402,0,
00:00:06.104,0.00101524021010846,0,
00:00:06.108,0.000183162905159406,0,
00:00:06.112,-0.000396421906771138,0,
00:00:06.116,-0.000547135132364929,0,
00:00:06.12,-0.000380998273612931,0,
00:00:06.124,-0.00010702466533985,0,
00:00:06.128,0.000106589061033446,0,
00:00:06.132,0.00226517184637487,0,
00:00:06.136,-0.00181725760921836,0,
00:00:06.14,-0.00364537024870515,0,
00:00:06.144,0.00386550626717508,0,
00:00:06.148,-0.00161855958867818,0,
00:00:06.152,0.00148259021807462,0,
00:00:06.156,0.00121940241660923,0,
00:00:06.16,6.75458504701965E-05,0,
00:00:06.164,-0.000734346394892782,0,
00:00:06.168,-0.00294553581625223,0,
00:00:06.172,0.00351428659632802,0,
00:00:06.176,-0.00249024317599833,0,
00:00:06.18,0.00282466900534928,0,
00:00:06.184,-0.00102033850271255,0,
00:00:06.188,-0.00140060146804899,0,
00:00:06.192,-0.000527468917425722,0,
00:00:06.196,0.000328834925312549,0,
00:00:06.2,0.000683540827594697,0,
00:00:06.204,0.000566237547900528,0,
00:00:06.208,0.000227693541091867,0,
00:00:06.212,-8.49534044391476E-05,0,
00:00:06.216,-0.000240343069890514,0,
00:00:06.22,-0.000232257618336007,0,
00:00:06.224,-0.00012954868725501,0,
00:00:06.228,-1.44654568430269E-05,0,
00:00:06.232,5.88908442296088E-05,0,
00:00:06.236,7.64937576605007E-05,0,
00:00:06.24,5.39658212801442E-05,0,
00:00:06.244,-0.0020581386052072,0,
00:00:06.248,0.0019641628023237,0,
00:00:06.252,0.0016188439913094,0,
00:00:06.256,0.000156768626766279,0,
00:00:06.26,-0.000852583034429699,0,
00:00:06.264,0.00104862509761006,0,
00:00:06.268,-0.00467535480856895,0,
00:00:06.272,0.00233440473675728,0,
00:00:06.276,-0.000204919459065422,0,
00:00:06.28,-0.000212378348805942,0,
00:00:06.284,-0.00176699121948332,0,
00:00:06.288,0.00253126630559564,0,
00:00:06.292,0.00207292311824858,0,
00:00:06.296,-0.00177048321347684,0,
00:00:06.3,0.00307183340191841,0,
00:00:06.304,-0.00161288154777139,0,
00:00:06.308,-0.0023166190367192,0,
00:00:06.312,-0.00121388433035463,0,
00:00:06.316,0.000113716647319961,0,
00:00:06.32,0.000868421513587236,0,
00:00:06.324,0.000924690917599946,0,
00:00:06.328,0.000543507572729141,0,
00:00:06.332,7.47491358197294E-05,0,
00:00:06.336,-0.000238747874391265,0,
00:00:06.34,-0.000323223735904321,0,
00:00:06.344,-0.000235450221225619,0,
00:00:06.348,-8.36351100588217E-05,0,
00:00:06.352,0.00211664638482034,0,
00:00:06.356,-0.00187923724297434,0,
00:00:06.36,-0.00155492499470711,0,
00:00:06.364,-0.00220834603533149,0,
00:00:06.368,0.00281850155442953,0,
00:00:06.372,0.00264418870210648,0,
00:00:06.376,0.000777902430854738,0,
00:00:06.38,-0.000780472706537694,0,
00:00:06.384,-0.00133366917725652,0,
00:00:06.388,-0.00103394442703575,0,
00:00:06.392,-0.000374701630789787,0,
00:00:06.396,0.000196024135220796,0,
00:00:06.4,0.0025340539868921,0,
00:00:06.404,-0.00363044184632599,0,
00:00:06.408,0.000553634366951883,0,
00:00:06.412,0.00147437083069235,0,
00:00:06.416,0.0029776890296489,0,
00:00:06.42,-0.00193208700511605,0,
00:00:06.424,-0.00213389890268445,0,
00:00:06.428,-0.000752640713471919,0,
00:00:06.432,0.000484632706502452,0,
00:00:06.436,0.000963692786172032,0,
00:00:06.44,0.000773531035520136,0,
00:00:06.444,0.000287885777652264,0,
00:00:06.448,-0.000144759542308748,0,
00:00:06.452,-0.000348406756529585,0,
00:00:06.456,-0.000323664367897436,0,
00:00:06.46,-0.000172476575244218,0,
00:00:06.464,-1.07250916698831E-05,0,
00:00:06.468,8.83261527633294E-05,0,
00:00:06.472,-0.00196743221022189,0,
00:00:06.476,0.00204890407621861,0,
00:00:06.48,0.00166373571846634,0,
00:00:06.484,0.000159097136929631,0,
00:00:06.488,-0.000876133562996984,0,
00:00:06.492,-0.00105571816675365,0,
00:00:06.496,-0.000643475505057722,0,
00:00:06.5,-8.01573696662672E-05,0,
00:00:06.504,0.000310283765429631,0,
00:00:06.508,0.000418753130361438,0,
00:00:06.512,0.000308310642139986,0,
00:00:06.516,0.000113622030767146,0,
00:00:06.52,-4.83084695588332E-05,0,
00:00:06.524,-0.000122129407827742,0,
00:00:06.528,-0.000112891546450555,0,
00:00:06.532,-5.9070600400446E-05,0,
00:00:06.536,-2.2755341433367E-06,0,
00:00:06.54,3.18854217766784E-05,0,
00:00:06.544,3.81514182663523E-05,0,
00:00:06.548,2.54210535786115E-05,0,
00:00:06.552,7.05369666320621E-06,0,
00:00:06.556,-6.71887482894817E-06,0,
00:00:06.56,0.00206389231607318,0,
00:00:06.564,-0.00198512664064765,0,
00:00:06.568,-0.0016464174259454,0,
00:00:06.572,-0.00225213845260441,0,
00:00:06.576,0.00282140169292688,0,
00:00:06.58,0.00267314165830612,0,
00:00:06.584,0.000809650809969753,0,
00:00:06.588,-0.00283650867640972,0,
00:00:06.592,0.00272167543880641,0,
00:00:06.596,-0.00137387029826641,0,
00:00:06.6,-0.00184986565727741,0,
00:00:06.604,-0.000831599580124021,0,
00:00:06.608,0.000270248507149518,0,
00:00:06.612,0.000818707165308297,0,
00:00:06.616,-0.00130356941372156,0,
00:00:06.62,0.00237019057385623,0,
00:00:06.624,0.00370942521840334,0,
00:00:06.628,-0.00412212777882814,0,
00:00:06.632,-0.000794846273493022,0,
00:00:06.636,0.000251092104008421,0,
00:00:06.64,0.000340274535119534,0,
00:00:06.644,0.000155443951371126,0,
00:00:06.648,-7.1717022365192E-06,0,
00:00:06.652,-6.78045107633807E-05,0,
00:00:06.656,0.00202691648155451,0,
00:00:06.66,-0.00197661365382373,0,
00:00:06.664,-0.00160679989494383,0,
00:00:06.668,-0.000131773078464903,0,
00:00:06.672,0.000875970465131104,0,
00:00:06.676,0.00311586866155267,0,
00:00:06.68,-0.0013496798928827,0,
00:00:06.684,-0.00364913418889046,0,
00:00:06.688,0.00148514518514276,0,
00:00:06.692,0.00206940388306975,0,
00:00:06.696,0.000901915656868368,0,
00:00:06.7,0.00175441859755665,0,
00:00:06.704,-0.00494689354673028,0,
00:00:06.708,0.00159919867292047,0,
00:00:06.712,-0.000889588438440114,0,
00:00:06.716,-0.00264194095507264,0,
00:00:06.72,0.00228094006888568,0,
00:00:06.724,0.00447996286675334,0,
00:00:06.728,-0.0011258483864367,0,
00:00:06.732,-0.00219738250598311,0,
00:00:06.736,-0.00129836925771087,0,
00:00:06.74,-8.32990117487498E-05,0,
00:00:06.744,0.000649621186312288,0,
00:00:06.748,0.000757556525059044,0,
00:00:06.752,0.000461105722934008,0,
00:00:06.756,6.85283739585429E-05,0,
00:00:06.76,-0.000201684786588885,0,
00:00:06.764,-0.000278312683803961,0,
00:00:06.768,-0.000205733565962873,0,
00:00:06.772,-7.56613953853957E-05,0,
00:00:06.776,-0.00204305234365165,0,
00:00:06.78,0.00413316814228892,0,
00:00:06.784,-0.000257563486229628,0,
00:00:06.788,-0.00142548489384353,0,
00:00:06.792,-0.00309415278024971,0,
00:00:06.796,0.00384472450241447,0,
00:00:06.8,3.81604986614548E-05,0,
00:00:06.804,-0.000933151168283075,0,
00:00:06.808,-0.00271759903989732,0,
00:00:06.812,0.00190287025179714,0,
00:00:06.816,0.00194056564942002,0,
00:00:06.82,0.000542665249668062,0,
00:00:06.824,-0.000615776050835848,0,
00:00:06.828,-0.00306880078278482,0,
00:00:06.832,0.0033201992046088,0,
00:00:06.836,-0.000554793106857687,0,
00:00:06.84,-0.00126847811043262,0,
00:00:06.844,-0.00065035535953939,0,
00:00:06.848,0.000132781555294059,0,
00:00:06.852,0.00055035186232999,0,
00:00:06.856,0.000540952838491648,0,
00:00:06.86,0.000283987814327702,0,
00:00:06.864,-1.46745776419266E-06,0,
00:00:06.868,0.00190052192192525,0,
00:00:06.872,-0.00218064733780921,0,
00:00:06.876,-0.00177838536910713,0,
00:00:06.88,-0.0022908728569746,0,
00:00:06.884,0.00285364431329072,0,
00:00:06.888,0.00273301731795073,0,
00:00:06.892,0.000859985942952335,0,
00:00:06.896,-0.000737571914214641,0,
00:00:06.9,-0.00133209628984332,0,
00:00:06.904,-0.00105720828287303,0,
00:00:06.908,-0.000402493547881022,0,
00:00:06.912,0.000177523805177771,0,
00:00:06.916,0.000453155080322176,0,
00:00:06.92,0.000425566657213494,0,
00:00:06.924,-0.001846763654612,0,
00:00:06.928,0.004067606292665,0,
00:00:06.932,-0.000447963800979778,0,
00:00:06.936,-0.00160716706886888,0,
00:00:06.94,-0.00111699849367142,0,
00:00:06.944,-0.000214126819628291,0,
00:00:06.948,0.00249591190367937,0,
00:00:06.952,-0.00138270214665681,0,
00:00:06.956,-0.00122236961033195,0,
00:00:06.96,-5.19368113600649E-05,0,
00:00:06.964,0.000734410772565752,0,
00:00:06.968,0.000825664203148335,0,
00:00:06.972,0.000458984228316695,0,
00:00:06.976,9.5591326498834E-07,0,
00:00:06.98,-0.000294067489448935,0,
00:00:06.984,-0.00035372341517359,0,
00:00:06.988,-0.00231842743232846,0,
00:00:06.992,0.00397533131763339,0,
00:00:06.996,-0.00235540838912129,0,
00:00:07,0.000616492179688066,0,
00:00:07.004,0.000713607994839549,0,
00:00:07.008,-0.00204013590700924,0,
00:00:07.012,0.00360233290120959,0,
00:00:07.016,-0.000841010536532849,0,
00:00:07.02,-0.00174457987304777,0,
00:00:07.024,-0.00308893155306578,0,
00:00:07.028,0.00405651237815619,0,
00:00:07.032,-0.0017862543463707,0,
00:00:07.036,0.00328888255171478,0,
00:00:07.04,-0.000922901090234518,0,
00:00:07.044,-0.00365234445780516,0,
00:00:07.048,0.00325425039045513,0,
00:00:07.052,-0.00229283049702644,0,
00:00:07.056,0.00110399269033223,0,
00:00:07.06,0.00120839511509985,0,
00:00:07.064,0.00237098825164139,0,
00:00:07.068,-0.00243049487471581,0,
00:00:07.072,-0.00439378386363387,0,
00:00:07.076,0.00132383941672742,0,
00:00:07.08,0.00236288504675031,0,
00:00:07.084,0.00343563011847436,0,
00:00:07.088,-0.00192733865696937,0,
00:00:07.092,-0.00237381388433278,0,
00:00:07.096,-0.00101151561830193,0,
00:00:07.1,0.000339640013407916,0,
00:00:07.104,0.000955138180870563,0,
00:00:07.108,0.000852091354317963,0,
00:00:07.112,0.000385204883059487,0,
00:00:07.116,-7.77035893406719E-05,0,
00:00:07.12,0.00174808467272669,0,
00:00:07.124,-0.00231426302343607,0,
00:00:07.128,-0.00392008479684591,0,
00:00:07.132,0.00383783783763647,0,
00:00:07.136,0.000585723377298564,0,
00:00:07.14,-0.00240382994525135,0,
00:00:07.144,0.0016678674146533,0,
00:00:07.148,0.00156937539577484,0,
00:00:07.152,0.000260644970694557,0,
00:00:07.156,-0.000735005014576018,0,
00:00:07.16,-0.000977316754870117,0,
00:00:07.164,-0.00065092631848529,0,
00:00:07.168,0.00193301448598504,0,
00:00:07.172,-0.00381258176639676,0,
00:00:07.176,0.000704190810211003,0,
00:00:07.18,0.00175948219839484,0,
00:00:07.184,0.00114526867400855,0,
00:00:07.188,0.000158403985551558,0,
00:00:07.192,-0.000500904570799321,0,
00:00:07.196,-0.000653382507152855,0,
00:00:07.2,0.00163308542687446,0,
00:00:07.204,-0.00416731229051948,0,
00:00:07.208,0.000465311866719276,0,
00:00:07.212,0.00168914801906794,0,
00:00:07.216,0.00120309996418655,0,
00:00:07.22,0.000266208488028497,0,
00:00:07.224,0.00166561233345419,0,
00:00:07.228,-0.00466266181319952,0,
00:00:07.232,-0.000114127193228342,0,
00:00:07.236,0.0013189137680456,0,
00:00:07.24,0.00112005206756294,0,
00:00:07.244,0.000389837252441794,0,
00:00:07.248,-0.000217355787754059,0,
00:00:07.252,-0.00046052920515649,0,
00:00:07.256,-0.000385487888706848,0,
00:00:07.26,0.00191294273827225,0,
00:00:07.264,-0.00193060631863773,0,
00:00:07.268,-0.0014915136853233,0,
00:00:07.272,-2.77016479230952E-05,0,
00:00:07.276,-0.00114795658737421,0,
00:00:07.28,0.00508987531065941,0,
00:00:07.284,0.000260414759395644,0,
00:00:07.288,-0.00143246760126203,0,
00:00:07.292,-0.00343176140449941,0,
00:00:07.296,0.00136955571360886,0,
00:00:07.3,0.00174350896850228,0,
00:00:07.304,0.000628227717243135,0,
00:00:07.308,-0.000400819495553151,0,
00:00:07.312,-0.00079425034346059,0,
00:00:07.316,0.00144902931060642,0,
00:00:07.32,-0.00426843948662281,0,
00:00:07.324,-0.00160202500410378,0,
00:00:07.328,0.00581833720207214,0,
00:00:07.332,0.00095933279953897,0,
00:00:07.336,-0.00113933556713164,0,
00:00:07.34,-0.00141301890835166,0,
00:00:07.344,-0.000811551348306239,0,
00:00:07.348,-7.7687029261142E-05,0,
00:00:07.352,0.000379995879484341,0,
00:00:07.356,-0.0016032385174185,0,
00:00:07.36,0.00436526350677013,0,
00:00:07.364,-0.000252519879722968,0,
00:00:07.368,0.000517282926011831,0,
00:00:07.372,-0.0031517599709332,0,
00:00:07.376,-0.00402961671352386,0,
00:00:07.38,0.0021401746198535,0,
00:00:07.384,0.00304409442469478,0,
00:00:07.388,0.00163163745310158,0,
00:00:07.392,-5.91507050557993E-05,0,
00:00:07.396,-0.00310206902213395,0,
00:00:07.4,0.00293361046351492,0,
00:00:07.404,-0.000993277761153877,0,
00:00:07.408,-0.00155398109927773,0,
00:00:07.412,-0.000725685502402484,0,
00:00:07.416,0.000212129511055537,0,
00:00:07.42,0.000685980718117207,0,
00:00:07.424,-0.0014244937337935,0,
00:00:07.428,0.00438330229371786,0,
00:00:07.432,-0.000343527877703309,0,
00:00:07.436,0.000397204334149137,0,
00:00:07.44,-0.00531531451269984,0,
00:00:07.444,-1.07355253931019E-05,0,
00:00:07.448,0.00182058464270085,0,
00:00:07.452,0.00161360995844007,0,
00:00:07.456,0.000643708335701376,0,
00:00:07.46,-0.000227442913455889,0,
00:00:07.464,0.00144713150803,0,
00:00:07.468,-0.0046287402510643,0,
00:00:07.472,0.00212094094604254,0,
00:00:07.476,-0.000498543668072671,0,
00:00:07.48,-0.000436684495070949,0,
00:00:07.484,0.000216953354538418,0,
00:00:07.488,0.000579317915253341,0,
00:00:07.492,0.000511059479322284,0,
00:00:07.496,0.00020712819241453,0,
00:00:07.5,-9.22687613638118E-05,0,
00:00:07.504,-0.000246900221100077,0,
00:00:07.508,-0.00231682113371789,0,
00:00:07.512,0.00391262257471681,0,
00:00:07.516,-0.00035402923822403,0,
00:00:07.52,-0.00140854634810239,0,
00:00:07.524,-0.000942519982345402,0,
00:00:07.528,-0.0022044163197279,0,
00:00:07.532,0.00446804007515311,0,
00:00:07.536,0.00020570722699631,0,
00:00:07.54,-0.00318117532879114,0,
00:00:07.544,0.00104264018591493,0,
00:00:07.548,0.00341582181863487,0,
00:00:07.552,-0.00159109442029148,0,
00:00:07.556,-0.00416413927450776,0,
00:00:07.56,0.00316337356343865,0,
00:00:07.564,-1.23130917017988E-07,0,
00:00:07.568,-0.000572061340790242,0,
00:00:07.572,-0.00229965406470001,0,
00:00:07.576,0.00215370301157236,0,
00:00:07.58,0.00404795724898577,0,
00:00:07.584,-0.00155041588004678,0,
00:00:07.588,-0.00241603096947074,0,
00:00:07.592,-0.00128554902039468,0,
00:00:07.596,7.03536788932979E-05,0,
00:00:07.6,0.000825578521471471,0,
00:00:07.604,0.000873814162332565,0,
00:00:07.608,0.000493707426358014,0,
00:00:07.612,3.86308638553601E-05,0,
00:00:07.616,-0.000255177612416446,0,
00:00:07.62,-0.000322622334351763,0,
00:00:07.624,-0.000225660929572769,0,
00:00:07.628,-7.27896258467808E-05,0,
00:00:07.632,4.76864988740999E-05,0,
00:00:07.636,9.76606752374209E-05,0,
00:00:07.64,-0.00199079909361899,0,
00:00:07.644,-5.93562181165908E-05,0,
00:00:07.648,0.0077667348086834,0,
00:00:07.652,-0.00423389812931418,0,
00:00:07.656,-0.00200385111384094,0,
00:00:07.66,-0.000600824365392327,0,
00:00:07.664,0.000200217866222374,0,
00:00:07.668,0.00258212443441153,0,
00:00:07.672,-0.00151312781963497,0,
00:00:07.676,-0.00346786854788661,0,
00:00:07.68,0.00390462554059923,0,
00:00:07.684,0.00040665888809599,0,
00:00:07.688,-0.000569515395909548,0,
00:00:07.692,-0.000479564187116921,0,
00:00:07.696,-0.000129389198264107,0,
00:00:07.7,0.00219483347609639,0,
00:00:07.704,-0.00386916287243366,0,
00:00:07.708,0.000448602950200439,0,
00:00:07.712,0.00147632881999016,0,
00:00:07.716,0.000957248965278268,0,
00:00:07.72,0.000102241654531099,0,
00:00:07.724,-0.000457549787824973,0,
00:00:07.728,-0.000570964009966701,0,
00:00:07.732,-0.000372904469259083,0,
00:00:07.736,-8.37308180052787E-05,0,
00:00:07.74,0.000128801722894423,0,
00:00:07.744,0.000201460585230961,0,
00:00:07.748,0.000159035669639707,0,
00:00:07.752,-0.00200925394892693,0,
00:00:07.756,0.00195935438387096,0,
00:00:07.76,0.00158471497707069,0,
00:00:07.764,0.000120128432172351,0,
00:00:07.768,0.00120080239139497,0,
00:00:07.772,-0.00300693791359663,0,
00:00:07.776,-0.00433414056897163,0,
00:00:07.78,0.00381118035875261,0,
00:00:07.784,0.000823810638394207,0,
00:00:07.788,-0.00209979782812297,0,
00:00:07.792,0.00188580469693989,0,
00:00:07.796,0.00164563441649079,0,
00:00:07.8,0.000221995316678658,0,
00:00:07.804,-0.000824140035547316,0,
00:00:07.808,-0.00105774600524455,0,
00:00:07.812,-0.000691792578436434,0,
00:00:07.816,-0.000142995675560087,0,
00:00:07.82,0.000262122601270676,0,
00:00:07.824,-0.00167748355306685,0,
00:00:07.828,0.00228762766346335,0,
00:00:07.832,0.00384789565578103,0,
00:00:07.836,-0.00182991661131382,0,
00:00:07.84,-0.00259722792543471,0,
00:00:07.844,-0.00339188310317695,0,
00:00:07.848,0.00420024711638689,0,
00:00:07.852,0.00060499703977257,0,
00:00:07.856,-0.000505502859596163,0,
00:00:07.86,-0.00256821746006608,0,
00:00:07.864,0.00389370671473444,0,
00:00:07.868,-0.000223916256800294,0,
00:00:07.872,-0.00126983388327062,0,
00:00:07.876,-0.000879718863870949,0,
00:00:07.88,-0.00222695688717067,0,
00:00:07.884,0.00439760275185108,0,
00:00:07.888,-0.00194196938537061,0,
00:00:07.892,0.002902259118855,0,
00:00:07.896,-0.00127468735445291,0,
00:00:07.9,-0.00175183697137982,0,
00:00:07.904,-0.00078996951924637,0,
00:00:07.908,0.000228800796321593,0,
00:00:07.912,0.000720773357897997,0,
00:00:07.916,0.000667605840135366,0,
00:00:07.92,0.000323057116474956,0,
00:00:07.924,-3.40050610247999E-05,0,
00:00:07.928,-0.000237208179896697,0,
00:00:07.932,-0.000258404033957049,0,
00:00:07.936,-0.000161574193043634,0,
00:00:07.94,-3.61662896466441E-05,0,
00:00:07.944,5.25522700627334E-05,0,
00:00:07.948,8.18630724097602E-05,0,
00:00:07.952,6.38761484879069E-05,0,
00:00:07.956,2.59507487498922E-05,0,
00:00:07.96,-7.3559704105719E-06,0,
00:00:07.964,-2.36641808442073E-05,0,
00:00:07.968,-0.0020988117903471,0,
00:00:07.972,0.00196255557239056,0,
00:00:07.976,0.00164076418150216,0,
00:00:07.98,0.00225880765356123,0,
00:00:07.984,-0.00281039043329656,0,
00:00:07.988,-0.0026643208693713,0,
00:00:07.992,-0.00288168014958501,0,
00:00:07.996,0.00273522571660578,0,
00:00:08,0.00504410313442349,0,
00:00:08.004,-0.000760846247430891,0,
00:00:08.008,-0.00210171914659441,0,
00:00:08.012,-0.00139308348298073,0,
00:00:08.016,-0.00231797667220235,0,
00:00:08.02,0.00457646884024143,0,
00:00:08.024,-0.00170007545966655,0,
00:00:08.028,0.000988922663964331,0,
00:00:08.032,0.00073980464367196,0,
00:00:08.036,-0.000163031290867366,0,
00:00:08.04,-0.00069887435529381,0,
00:00:08.044,-0.000682671321555972,0,
00:00:08.048,-0.000336183962645009,0,
00:00:08.052,4.33375498687383E-05,0,
00:00:08.056,0.000265830138232559,0,
00:00:08.06,-0.00178422254975885,0,
00:00:08.064,0.00423690350726247,0,
00:00:08.068,-0.000287383096292615,0,
00:00:08.072,-0.00152007432188839,0,
00:00:08.076,-0.00318590411916375,0,
00:00:08.08,0.0017182226292789,0,
00:00:08.084,0.00408426765352488,0,
00:00:08.088,-0.00331835937686265,0,
00:00:08.092,-0.000101048339274712,0,
00:00:08.096,0.00264681805856526,0,
00:00:08.1,-0.00167795817833394,0,
00:00:08.104,-0.0017267536604777,0,
00:00:08.108,-0.00251391134224832,0,
00:00:08.112,0.00467251008376479,0,
00:00:08.116,0.000616426230408251,0,
00:00:08.12,-0.000779562862589955,0,
00:00:08.124,-0.00289674522355199,0,
00:00:08.128,0.00367226637899876,0,
00:00:08.132,-0.000288376031676307,0,
00:00:08.136,-0.00121499237138778,0,
00:00:08.14,-0.000778663612436503,0,
00:00:08.144,-6.64586696075276E-05,0,
00:00:08.148,0.000385312829166651,0,
00:00:08.152,0.00046240896335803,0,
00:00:08.156,0.000288067618384957,0,
00:00:08.16,4.86535791424103E-05,0,
00:00:08.164,-0.000119828080642037,0,
00:00:08.168,0.00190522067714483,0,
00:00:08.172,-0.00210386235266924,0,
00:00:08.176,-0.00169137446209788,0,
00:00:08.18,-0.000159019487909973,0,
00:00:08.184,0.000892387761268765,0,
00:00:08.188,0.00107448152266443,0,
00:00:08.192,0.000655673677101731,0,
00:00:08.196,8.32937512313947E-05,0,
00:00:08.2,-0.000313784839818254,0,
00:00:08.204,-0.00250040786340833,0,
00:00:08.208,0.00166227435693145,0,
00:00:08.212,0.00152638414874673,0,
00:00:08.216,0.00230154464952648,0,
00:00:08.22,-0.00269425450824201,0,
00:00:08.224,-0.00255509512498975,0,
00:00:08.228,-0.00282333930954337,0,
00:00:08.232,0.00481458194553852,0,
00:00:08.236,0.0009630445856601,0,
00:00:08.24,-0.00254002981819212,0,
00:00:08.244,0.00131375482305884,0,
00:00:08.248,0.00126147677656263,0,
00:00:08.252,0.000125892445794307,0,
00:00:08.256,-0.000703085272107273,0,
00:00:08.26,-0.000858029467053711,0,
00:00:08.264,-0.00053025980014354,0,
00:00:08.268,-7.25747813703492E-05,0,
00:00:08.272,-0.00182659074198455,0,
00:00:08.276,0.000241737041505985,0,
00:00:08.28,0.00594818172976375,0,
00:00:08.284,0.00201623700559139,0,
00:00:08.288,-0.00431977491825819,0,
00:00:08.292,-0.00378825888037682,0,
00:00:08.296,-0.00108520709909499,0,
00:00:08.3,0.00110876408871263,0,
00:00:08.304,0.00187465141061693,0,
00:00:08.308,-0.000628128182142973,0,
00:00:08.312,0.00457420153543353,0,
00:00:08.316,-0.000607231166213751,0,
00:00:08.32,-0.00210375664755702,0,
00:00:08.324,-0.00160496425814927,0,
00:00:08.328,-0.000490387843456119,0,
00:00:08.332,0.000385389430448413,0,
00:00:08.336,0.000713854969944805,0,
00:00:08.34,0.000580096035264432,0,
00:00:08.344,0.000239616638282314,0,
00:00:08.348,-6.97826835676096E-05,0,
00:00:08.352,-0.000224375573452562,0,
00:00:08.356,-0.000219986875890754,0,
00:00:08.36,-0.000123521953355521,0,
00:00:08.364,-1.42244589369511E-05,0,
00:00:08.368,5.57830462639686E-05,0,
00:00:08.372,7.27836304577067E-05,0,
00:00:08.376,5.14848798047751E-05,0,
00:00:08.38,1.69294980878476E-05,0,
00:00:08.384,-1.05425406218274E-05,0,
00:00:08.388,-2.20761667151237E-05,0,
00:00:08.392,-1.9336855984875E-05,0,
00:00:08.396,-9.42814676818671E-06,0,
00:00:08.4,4.16749173837161E-07,0,
00:00:08.404,5.99536770096165E-06,0,
00:00:08.408,6.68265056447126E-06,0,
00:00:08.412,4.2141118683503E-06,0,
00:00:08.416,9.60293164098402E-07,0,
00:00:08.42,-0.00207713525742292,0,
00:00:08.424,0.00197319523431361,0,
00:00:08.428,0.00164037791546434,0,
00:00:08.432,0.00017635892436374,0,
00:00:08.436,-0.000842546403873712,0,
00:00:08.44,-0.00102701759897172,0,
00:00:08.444,-0.000629963644314557,0,
00:00:08.448,-8.13331716926768E-05,0,
00:00:08.452,0.00030102301388979,0,
00:00:08.456,-0.00166703818831593,0,
00:00:08.46,0.00227748323231936,0,
00:00:08.464,0.001754415105097,0,
00:00:08.468,0.000130882588564418,0,
00:00:08.472,-0.000961646612267941,0,
00:00:08.476,-0.00321384589187801,0,
00:00:08.48,0.00128664611838758,0,
00:00:08.484,0.00155776983592659,0,
00:00:08.488,0.000508969882503152,0,
00:00:08.492,0.00167919823434204,0,
00:00:08.496,-0.00267565716058016,0,
00:00:08.5,-0.00215307623147964,0,
00:00:08.504,-0.000311292998958379,0,
00:00:08.508,0.00101319479290396,0,
00:00:08.512,-0.000759342452511191,0,
00:00:08.516,0.00284576951526105,0,
00:00:08.52,0.0018342217663303,0,
00:00:08.524,-0.000135864989715628,0,
00:00:08.528,-0.00340569415129721,0,
00:00:08.532,0.000561802939046174,0,
00:00:08.536,0.00292395567521453,0,
00:00:08.54,-0.0039195055142045,0,
00:00:08.544,-7.12739056325518E-05,0,
00:00:08.548,0.00305939372628927,0,
00:00:08.552,-0.00120524852536619,0,
00:00:08.556,0.00065990281291306,0,
00:00:08.56,-0.00440417136996984,0,
00:00:08.564,0.00294767995364964,0,
00:00:08.568,0.000294135417789221,0,
00:00:08.572,-0.00213204603642225,0,
00:00:08.576,0.00212888023816049,0,
00:00:08.58,0.00190221087541431,0,
00:00:08.584,0.000344387604855001,0,
00:00:08.588,-0.000851552409585565,0,
00:00:08.592,-0.00117057049646974,0,
00:00:08.596,-0.000810435507446527,0,
00:00:08.6,-0.000215789987123571,0,
00:00:08.604,0.000246857234742492,0,
00:00:08.608,0.000423124409280717,0,
00:00:08.612,0.000349943817127496,0,
00:00:08.616,0.000159085044288076,0,
00:00:08.62,-2.00893664441537E-05,0,
00:00:08.624,-0.000116058792627882,0,
00:00:08.628,-0.00219812034629285,0,
00:00:08.632,0.00190180947538465,0,
00:00:08.636,0.003704400267452,0,
00:00:08.64,-0.00177082500886172,0,
00:00:08.644,-0.00452099926769733,0,
00:00:08.648,0.00287606753408909,0,
00:00:08.652,-0.00218578800559044,0,
00:00:08.656,0.00145177496597171,0,
00:00:08.66,0.00361790088936687,0,
00:00:08.664,-0.00150349887553602,0,
00:00:08.668,-0.00209206528961658,0,
00:00:08.672,-0.000952413305640221,0,
00:00:08.676,0.00024941170704551,0,
00:00:08.68,0.000826101109851152,0,
00:00:08.684,0.000763096904847771,0,
00:00:08.688,0.000362186779966578,0,
00:00:08.692,-5.00274873047601E-05,0,
00:00:08.696,-0.000281250511761755,0,
00:00:08.7,-0.000301067921100184,0,
00:00:08.704,-0.000185539422091097,0,
00:00:08.708,-3.90294153476134E-05,0,
00:00:08.712,6.32438677712344E-05,0,
00:00:08.716,0.00217168359085917,0,
00:00:08.72,-0.00397724192589521,0,
00:00:08.724,0.000362565217074007,0,
00:00:08.728,0.00145566870924085,0,
00:00:08.732,0.0030676550231874,0,
00:00:08.736,-0.0018171890405938,0,
00:00:08.74,-0.00412949407473207,0,
00:00:08.744,0.00124817085452378,0,
00:00:08.748,0.00210925750434399,0,
00:00:08.752,0.00318149686791003,0,
00:00:08.756,-0.00207478459924459,0,
00:00:08.76,-0.00447204662486911,0,
00:00:08.764,0.00102393247652799,0,
00:00:08.768,0.00206429394893348,0,
00:00:08.772,0.00119250582065433,0,
00:00:08.776,3.07839436572976E-05,0,
00:00:08.78,-0.00065292848739773,0,
00:00:08.784,-0.000732916232664138,0,
00:00:08.788,-0.00250747124664485,0,
00:00:08.792,0.00192599219735712,0,
00:00:08.796,0.00184859265573323,0,
00:00:08.8,0.00252550817094743,0,
00:00:08.804,-0.00262165418826044,0,
00:00:08.808,-0.0046772719360888,0,
00:00:08.812,0.00113181991036981,0,
00:00:08.816,0.00232175877317786,0,
00:00:08.82,0.00143262615893036,0,
00:00:08.824,0.000159889605129138,0,
00:00:08.828,0.00143230496905744,0,
00:00:08.832,-0.00484846299514174,0,
00:00:08.836,-0.000178431539097801,0,
00:00:08.84,0.00136085017584264,0,
00:00:08.844,0.00120973284356296,0,
00:00:08.848,0.00254623359069228,0,
00:00:08.852,-0.00422721728682518,0,
00:00:08.856,-0.000126601531519555,0,
00:00:08.86,0.00105615507345647,0,
00:00:08.864,0.000829541822895408,0,
00:00:08.868,0.000211602891795337,0,
00:00:08.872,-0.000251343037234619,0,
00:00:08.876,-0.000394585513276979,0,
00:00:08.88,-0.000289015064481646,0,
00:00:08.884,-8.9799941633828E-05,0,
00:00:08.888,0.00214849575422704,0,
00:00:08.892,-0.00183515751268715,0,
00:00:08.896,-0.00152106187306345,0,
00:00:08.9,-0.0001186544977827,0,
00:00:08.904,0.000839602609630674,0,
00:00:08.908,-0.0010858909226954,0,
00:00:08.912,0.00256409263238311,0,
00:00:08.916,0.00169747672043741,0,
00:00:08.92,-0.00012983063061256,0,
00:00:08.924,-0.00124309316743165,0,
00:00:08.928,0.000759086571633816,0,
00:00:08.932,-0.00270802923478186,0,
00:00:08.936,-0.00374917825683951,0,
00:00:08.94,0.00221700244583189,0,
00:00:08.944,0.00507609266787767,0,
00:00:08.948,-0.00248965248465538,0,
00:00:08.952,0.000234178791288286,0,
00:00:08.956,0.00044177909148857,0,
00:00:08.96,-6.70163863105699E-05,0,
00:00:08.964,-0.000439868425019085,0,
00:00:08.968,0.0016130143776536,0,
00:00:08.972,-0.00429949630051851,0,
00:00:08.976,0.000341440521879122,0,
00:00:08.98,0.00163504516240209,0,
00:00:08.984,0.00121963734272867,0,
00:00:08.988,0.000320213555824012,0,
00:00:08.992,-0.000356023083440959,0,
00:00:08.996,0.00149572861846536,0,
00:00:09,-0.00241783354431391,0,
00:00:09.004,-0.0018008827464655,0,
00:00:09.008,-9.43684935919009E-05,0,
00:00:09.012,0.00103476783260703,0,
00:00:09.016,-0.000873060955200344,0,
00:00:09.02,0.00477222958579659,0,
00:00:09.024,-0.00232498697005212,0,
00:00:09.028,0.0022349467035383,0,
00:00:09.032,-0.00389710930176079,0,
00:00:09.036,-1.62260894285282E-05,0,
00:00:09.04,0.000896150828339159,0,
00:00:09.044,-0.00147799798287451,0,
00:00:09.048,0.00412555690854788,0,
00:00:09.052,-0.0005784333916381,0,
00:00:09.056,-0.00175458239391446,0,
00:00:09.06,-0.00118188292253762,0,
00:00:09.064,-0.000185243916348554,0,
00:00:09.068,0.000500635360367596,0,
00:00:09.072,0.000672970782034099,0,
00:00:09.076,0.00046713583287783,0,
00:00:09.08,0.000133520952658728,0,
00:00:09.084,-0.000126225175336003,0,
00:00:09.088,-0.00230336748063564,0,
00:00:09.092,0.00178457237780094,0,
00:00:09.096,0.0036299133207649,0,
00:00:09.1,-0.00178848940413445,0,
00:00:09.104,-0.00242208549752831,0,
00:00:09.108,-0.00321373785845935,0,
00:00:09.112,0.00222792243584991,0,
00:00:09.116,0.00467149494215846,0,
00:00:09.12,-0.000881463754922152,0,
00:00:09.124,-0.00201573618687689,0,
00:00:09.128,-0.00121954630594701,0,
00:00:09.132,-9.03965192264877E-05,0,
00:00:09.136,-0.00147592590656132,0,
00:00:09.14,0.00268176337704062,0,
00:00:09.144,0.00207417132332921,0,
00:00:09.148,0.000242348396568559,0,
00:00:09.152,-0.00103108386974782,0,
00:00:09.156,-0.00128864264115691,0,
00:00:09.16,-0.000824119022581726,0,
00:00:09.164,-0.000153391520143487,0,
00:00:09.168,0.000331132439896464,0,
00:00:09.172,0.000485670025227591,0,
00:00:09.176,0.000373469985788688,0,
00:00:09.18,0.000149803949170746,0,
00:00:09.184,-4.45901277998928E-05,0,
00:00:09.188,-0.00013898046745453,0,
00:00:09.192,-0.00013452761049848,0,
00:00:09.196,-0.00214998889714479,0,
00:00:09.2,0.00196821219287813,0,
00:00:09.204,0.00375297642312944,0,
00:00:09.208,-0.00382930948399007,0,
00:00:09.212,-0.000478317437227815,0,
00:00:09.216,0.000447168480604887,0,
00:00:09.22,0.000382316095056012,0,
00:00:09.224,8.9537315943744E-05,0,
00:00:09.228,-0.00010786881466629,0,
00:00:09.232,-0.000145610552863218,0,
00:00:09.236,-7.98827459220774E-05,0,
00:00:09.24,-0.00206741923466325,0,
00:00:09.244,0.00203984812833369,0,
00:00:09.248,0.0017154891975224,0,
00:00:09.252,0.0023014834150672,0,
00:00:09.256,-0.00280425790697336,0,
00:00:09.26,-0.00268206908367574,0,
00:00:09.264,-0.000829998520202935,0,
00:00:09.268,0.00074240704998374,0,
00:00:09.272,0.00132013077381998,0,
00:00:09.276,0.00104054727125913,0,
00:00:09.28,0.000390237721148878,0,
00:00:09.284,-0.000181941650225781,0,
00:00:09.288,-0.000451092550065368,0,
00:00:09.292,-0.00042060058331117,0,
00:00:09.296,-0.000224485556827858,0,
00:00:09.3,-1.41736163641326E-05,0,
00:00:09.304,0.000114726586616598,0,
00:00:09.308,0.000140848627779633,0,
00:00:09.312,9.56822477746755E-05,0,
00:00:09.316,2.82151286228327E-05,0,
00:00:09.32,-0.00209911214187741,0,
00:00:09.324,0.00400766124948859,0,
00:00:09.328,-0.000369814049918205,0,
00:00:09.332,-0.001481803948991,0,
00:00:09.336,-0.00101781426928937,0,
00:00:09.34,-0.000172809246578254,0,
00:00:09.344,0.000409888772992417,0,
00:00:09.348,0.000556638115085661,0,
00:00:09.352,0.000384101091185585,0,
00:00:09.356,0.000105051673017442,0,
00:00:09.36,-0.00218646321445704,0,
00:00:09.364,0.00385813461616635,0,
00:00:09.368,-0.000493081228341907,0,
00:00:09.372,-0.00153737259097397,0,
00:00:09.376,-0.00308588217012584,0,
00:00:09.38,0.00184389669448137,0,
00:00:09.384,0.00209525017999113,0,
00:00:09.388,-0.00131623807828873,0,
00:00:09.392,0.00152125221211463,0,
00:00:09.396,0.000709616288077086,0,
00:00:09.4,0.00149753235746175,0,
00:00:09.404,-0.00310315145179629,0,
00:00:09.408,-0.00253236154094338,0,
00:00:09.412,-0.000469429942313582,0,
00:00:09.416,0.00107726326677948,0,
00:00:09.42,0.0014984542503953,0,
00:00:09.424,0.00105150043964386,0,
00:00:09.428,0.000298765575280413,0,
00:00:09.432,-0.000294052879326046,0,
00:00:09.436,-0.000527180091012269,0,
00:00:09.44,-0.000442986842244864,0,
00:00:09.444,-0.00228165974840522,0,
00:00:09.448,0.00199572066776454,0,
00:00:09.452,0.003861601697281,0,
00:00:09.456,-0.00371987349353731,0,
00:00:09.46,-0.000415350979892537,0,
00:00:09.464,0.000455961067928001,0,
00:00:09.468,0.000355679425410926,0,
00:00:09.472,5.36376974196173E-05,0,
00:00:09.476,-0.000133758177980781,0,
00:00:09.48,-0.000154522203956731,0,
00:00:09.484,-7.50364270061255E-05,0,
00:00:09.488,1.91717226698529E-05,0,
00:00:09.492,0.00214996142312884,0,
00:00:09.496,-0.00397282419726253,0,
00:00:09.5,0.000381880265194923,0,
00:00:09.504,0.00147590378765017,0,
00:00:09.508,0.00100406736601144,0,
00:00:09.512,0.000160370618687011,0,
00:00:09.516,-0.0024920345749706,0,
00:00:09.52,0.00141857482958585,0,
00:00:09.524,0.00126151973381639,0,
00:00:09.528,7.61742849135771E-05,0,
00:00:09.532,-0.000729311315808445,0,
00:00:09.536,0.00124183029402047,0,
00:00:09.54,-0.00452264212071896,0,
00:00:09.544,0.000322664098348469,0,
00:00:09.548,0.00383103545755148,0,
00:00:09.552,-0.000600585655774921,0,
00:00:09.556,-0.00121083320118487,0,
00:00:09.56,-0.000494827632792294,0,
00:00:09.564,0.000242097143200226,0,
00:00:09.568,0.000538958178367466,0,
00:00:09.572,0.000430378684541211,0,
00:00:09.576,-0.00193225429393351,0,
00:00:09.58,0.0018664775416255,0,
00:00:09.584,0.00142051710281521,0,
00:00:09.588,-2.06374515983043E-05,0,
00:00:09.592,-0.000943714345339686,0,
00:00:09.596,-0.00102939968928695,0,
00:00:09.6,-0.000573699886444956,0,
00:00:09.604,-1.49126517499099E-05,0,
00:00:09.608,0.0003449106879998,0,
00:00:09.612,0.000420645577833056,0,
00:00:09.616,0.000290273688733578,0,
00:00:09.62,9.16918070288375E-05,0,
00:00:09.624,-6.30890281172469E-05,0,
00:00:09.628,-0.000126377082779072,0,
00:00:09.632,-0.000109153806988616,0,
00:00:09.636,-5.2268042054493E-05,0,
00:00:09.64,-0.00207238271832466,0,
00:00:09.644,0.00408556358888745,0,
00:00:09.648,-0.00029547032318078,0,
00:00:09.652,-0.00144148513209075,0,
00:00:09.656,-0.0010147166904062,0,
00:00:09.66,-0.00019281156710349,0,
00:00:09.664,-0.00169081147760153,0,
00:00:09.668,0.00251486850902438,0,
00:00:09.672,0.00202097208239138,0,
00:00:09.676,0.000286110938759521,0,
00:00:09.68,-0.000945748121012002,0,
00:00:09.684,-0.0012140910839662,0,
00:00:09.688,-0.000787331140600145,0,
00:00:09.692,-0.000154336041305214,0,
00:00:09.696,0.000308537360979244,0,
00:00:09.7,0.00046009331708774,0,
00:00:09.704,0.000357110751792789,0,
00:00:09.708,0.000145845697261393,0,
00:00:09.712,-3.96048999391496E-05,0,
00:00:09.716,-0.000130910644656979,0,
00:00:09.72,-0.000128122075693682,0,
00:00:09.724,-7.15287897037342E-05,0,
00:00:09.728,-0.00208354042842984,0,
00:00:09.732,0.00615971768274903,0,
00:00:09.736,-0.00226614577695727,0,
00:00:09.74,-0.00515298871323466,0,
00:00:09.744,0.000788150529842824,0,
00:00:09.748,0.00229356554336846,0,
00:00:09.752,0.00158880697563291,0,
00:00:09.756,0.00240125763230026,0,
00:00:09.76,-0.00254406430758536,0,
00:00:09.764,-0.00246538314968348,0,
00:00:09.768,-0.000770612445194274,0,
00:00:09.772,-0.00142036809120327,0,
00:00:09.776,0.00314315757714212,0,
00:00:09.78,0.00254878774285316,0,
00:00:09.784,0.00049780320841819,0,
00:00:09.788,-0.00102825590875,0,
00:00:09.792,0.000633039278909564,0,
00:00:09.796,-0.00298292352817953,0,
00:00:09.8,-0.00191888818517327,0,
00:00:09.804,-0.00195757835172117,0,
00:00:09.808,0.00333430920727551,0,
00:00:09.812,0.00309946108609438,0,
00:00:09.816,0.00100461055990309,0,
00:00:09.82,0.00129174825269729,0,
00:00:09.824,-0.00344552844762802,0,
00:00:09.828,-0.00283167860470712,0,
00:00:09.832,-0.000651823647785932,0,
00:00:09.836,0.001014135312289,0,
00:00:09.84,0.0015159600879997,0,
00:00:09.844,0.00110032979864627,0,
00:00:09.848,0.000341169041348621,0,
00:00:09.852,-0.000275116879492998,0,
00:00:09.856,-0.000530588964466006,0,
00:00:09.86,-0.000458097347291186,0,
00:00:09.864,-0.000221320995478891,0,
00:00:09.868,0.00208721798844635,0,
00:00:09.872,-0.0039086127653718,0,
00:00:09.876,0.000491240818519145,0,
00:00:09.88,0.0015642293728888,0,
00:00:09.884,0.00104207778349519,0,
00:00:09.888,0.000152667009388097,0,
00:00:09.892,-0.000447332888143137,0,
00:00:09.896,-0.000588109833188355,0,
00:00:09.9,-0.000398558739107102,0,
00:00:09.904,-0.000103347876574844,0,
00:00:09.908,0.000121106939332094,0,
00:00:09.912,0.000204013907932676,0,
00:00:09.916,0.000166467027156614,0,
00:00:09.92,7.36081638024189E-05,0,
00:00:09.924,-1.21367856991128E-05,0,
00:00:09.928,-5.70456286368426E-05,0,
00:00:09.932,-5.88251496083103E-05,0,
00:00:09.936,-3.4620396036189E-05,0,
00:00:09.94,-5.60953685635468E-06,0,
00:00:09.944,1.37574643304106E-05,0,
00:00:09.948,0.00209495006129146,0,
00:00:09.952,-0.00196122308261693,0,
00:00:09.956,-0.00371274631470442,0,
00:00:09.96,0.00179590319748968,0,
00:00:09.964,0.00247905845753849,0,
00:00:09.968,0.00119945604819804,0,
00:00:09.972,-0.00229063117876649,0,
00:00:09.976,0.00102931016590446,0,
00:00:09.98,0.00278778420761228,0,
00:00:09.984,-0.00228707236237824,0,
00:00:09.988,-0.0045607634820044,0,
00:00:09.992,0.00106734526343644,0,
00:00:09.996,0.00220236019231379,0,
00:00:10,0.00342968129552901,0,
00:00:10.004,-0.0018225748790428,0,
00:00:10.008,-0.00431586569175124,0,
00:00:10.012,0.00106126593891531,0,
00:00:10.016,0.00201777392067015,0,
00:00:10.02,0.00111744517926127,0,
00:00:10.024,0.00204713526181877,0,
00:00:10.028,-0.0047288341447711,0,
00:00:10.032,-0.000393593159969896,0,
00:00:10.036,0.00313054001890123,0,
00:00:10.04,-0.000983660575002432,0,
00:00:10.044,-0.00331441662274301,0,
00:00:10.048,0.00167530623730272,0,
00:00:10.052,0.00420268718153238,0,
00:00:10.056,-0.0010921546490863,0,
00:00:10.06,-0.00200300244614482,0,
00:00:10.064,-0.00109945994336158,0,
00:00:10.068,2.90146017505322E-05,0,
00:00:10.072,0.000660989433526993,0,
00:00:10.076,0.000704024045262486,0,
00:00:10.08,0.000392198387999088,0,
00:00:10.084,2.00796657736646E-05,0,
00:00:10.088,-0.000217397231608629,0,
00:00:10.092,-0.00234391260892153,0,
00:00:10.096,0.00386632652953267,0,
00:00:10.1,-0.000390675559174269,0,
00:00:10.104,0.000652352988254279,0,
00:00:10.108,-0.00291348597966135,0,
00:00:10.112,-0.00383270578458905,0,
00:00:10.116,0.00222855317406356,0,
00:00:10.12,0.00510689010843635,0,
00:00:10.124,-0.000410362088587135,0,
00:00:10.128,-0.00384641834534705,0,
00:00:10.132,0.00280653266236186,0,
00:00:10.136,-0.00269085634499788,0,
00:00:10.14,-0.00118184415623546,0,
00:00:10.144,0.00523754023015499,0,
00:00:10.148,5.13553532073274E-05,0,
00:00:10.152,-0.001808499568142,0,
00:00:10.156,-0.00162119977176189,0,
00:00:10.16,-0.000639489328023046,0,
00:00:10.164,-0.00182160921394825,0,
00:00:10.168,0.00471920007839799,0,
00:00:10.172,0.000280238600680605,0,
00:00:10.176,-0.00115568772889674,0,
00:00:10.18,-0.00102686253376305,0,
00:00:10.184,-0.000377048680093139,0,
00:00:10.188,0.000177757785422727,0,
00:00:10.192,0.000407284445827827,0,
00:00:10.196,0.000347087712725624,0,
00:00:10.2,0.000149576881085522,0,
00:00:10.204,-3.76002317352686E-05,0,
00:00:10.208,-0.000134564892505296,0,
00:00:10.212,-0.000135060312459245,0,
00:00:10.216,-7.7933473221492E-05,0,
00:00:10.22,-0.00208700424991548,0,
00:00:10.224,0.0040836906991899,0,
00:00:10.228,-0.000289046729449183,0,
00:00:10.232,-0.00143293896690011,0,
00:00:10.236,-0.00100858137011528,0,
00:00:10.24,-0.000190711682080291,0,
00:00:10.244,0.000383811071515083,0,
00:00:10.248,-0.00153879739809781,0,
00:00:10.252,0.00442774780094624,0,
00:00:10.256,-0.000225346186198294,0,
00:00:10.26,-0.00156799796968699,0,
00:00:10.264,-0.00120554282329977,0,
00:00:10.268,-0.000340880476869643,0,
00:00:10.272,0.000324903085129336,0,
00:00:10.276,-0.00151921133510768,0,
00:00:10.28,0.0024090213701129,0,
00:00:10.284,0.00388023420237005,0,
00:00:10.288,-0.00187168433330953,0,
00:00:10.292,-0.00474398350343108,0,
00:00:10.296,0.000600078434217721,0,
00:00:10.3,0.00176382611971349,0,
00:00:10.304,0.00111815880518407,0,
00:00:10.308,-0.00193972245324403,0,
00:00:10.312,0.0035714628174901,0,
00:00:10.316,-0.000923729734495282,0,
00:00:10.32,-0.00183186936192214,0,
00:00:10.324,-0.00107698026113212,0,
00:00:10.328,-2.52260560955619E-05,0,
00:00:10.332,-0.00145557662472129,0,
00:00:10.336,0.00476653454825282,0,
00:00:10.34,0.000112005698611028,0,
00:00:10.344,-0.00138196325860918,0,
00:00:10.348,-0.00119167822413146,0,
00:00:10.352,-0.00251155067235231,0,
00:00:10.356,0.00425723614171147,0,
00:00:10.36,0.000141120326588862,0,
00:00:10.364,-0.00105694320518523,0,
00:00:10.368,-0.000838976004160941,0,
00:00:10.372,-0.000222068905713968,0,
00:00:10.376,0.000244751630816609,0,
00:00:10.38,0.000393081980291754,0,
00:00:10.384,0.000291128497337922,0,
00:00:10.388,9.31190297706053E-05,0,
00:00:10.392,-7.01177195878699E-05,0,
00:00:10.396,-0.000139104828122072,0,
00:00:10.4,-0.000121275763376616,0,
00:00:10.404,-5.93442855461035E-05,0,
00:00:10.408,2.19539811041614E-06,0,
00:00:10.412,3.72229078493547E-05,0,
00:00:10.416,4.17401024606079E-05,0,
00:00:10.42,2.64758618868655E-05,0,
00:00:10.424,6.19230240772595E-06,0,
00:00:10.428,-8.32099431136157E-06,0,
00:00:10.432,0.00206254981458187,0,
00:00:10.436,-0.00198573875240982,0,
00:00:10.44,-0.00164633872918785,0,
00:00:10.444,-0.000175909328390844,0,
00:00:10.448,-0.00122922821901739,0,
00:00:10.452,0.00300670461729169,0,
00:00:10.456,0.0022747062612325,0,
00:00:10.46,0.00025893808924593,0,
00:00:10.464,-0.00114468252286315,0,
00:00:10.468,-0.00143777427729219,0,
00:00:10.472,-0.000933801056817174,0,
00:00:10.476,-0.000194463966181502,0,
00:00:10.48,0.000347282883012667,0,
00:00:10.484,0.00260399747639894,0,
00:00:10.488,-0.00363791827112436,0,
00:00:10.492,0.000504116120282561,0,
00:00:10.496,0.0014215165283531,0,
00:00:10.5,0.000869784329552203,0,
00:00:10.504,3.70173293049447E-05,0,
00:00:10.508,0.00159551890101284,0,
00:00:10.512,-0.00253389729186893,0,
00:00:10.516,-0.00406303675845265,0,
00:00:10.52,0.00173927505966276,0,
00:00:10.524,0.00262590404599905,0,
00:00:10.528,0.00140587927307934,0,
00:00:10.532,-6.06542162131518E-05,0,
00:00:10.536,-0.000887988833710551,0,
00:00:10.54,-0.000953004520852119,0,
00:00:10.544,0.00152655004058033,0,
00:00:10.548,-0.002031943295151,0,
00:00:10.552,-0.00345097901299596,0,
00:00:10.556,0.00214492226950824,0,
00:00:10.56,0.00273138144984841,0,
00:00:10.564,0.00128762423992157,0,
00:00:10.568,-0.000260355765931308,0,
00:00:10.572,-0.00105014210566878,0,
00:00:10.576,-0.00102376786526293,0,
00:00:10.58,-0.000536212290171534,0,
00:00:10.584,-2.02974376861675E-07,0,
00:00:10.588,0.000324418855598196,0,
00:00:10.592,0.00245594838634133,0,
00:00:10.596,-0.00379942753352225,0,
00:00:10.6,0.00247826566919684,0,
00:00:10.604,-0.00265312870033085,0,
00:00:10.608,0.00123514467850327,0,
00:00:10.612,0.00155284453649074,0,
00:00:10.616,0.000579493236728013,0,
00:00:10.62,-0.000357183278538287,0,
00:00:10.624,-0.00282237189821899,0,
00:00:10.628,0.00135280145332217,0,
00:00:10.632,0.00138615374453366,0,
00:00:10.636,0.00233807740733027,0,
00:00:10.64,-0.00256089423783123,0,
00:00:10.644,-0.00449395645409822,0,
00:00:10.648,0.00338543602265418,0,
00:00:10.652,-0.00163047027308494,0,
00:00:10.656,0.00177633343264461,0,
00:00:10.66,0.00365493795834482,0,
00:00:10.664,-0.00165797059889883,0,
00:00:10.668,-0.00229587592184544,0,
00:00:10.672,-0.00109915295615792,0,
00:00:10.676,-0.00187731557525694,0,
00:00:10.68,0.00282819801941514,0,
00:00:10.684,0.00454162107780576,0,
00:00:10.688,-0.00138161005452275,0,
00:00:10.692,-0.00458311522379518,0,
00:00:10.696,0.000489286903757602,0,
00:00:10.7,0.00153695803601295,0,
00:00:10.704,0.000918834062758833,0,
00:00:10.708,3.77333308279049E-05,0,
00:00:10.712,-0.000476854882435873,0,
00:00:10.716,0.00154604099225253,0,
00:00:10.72,-0.00434942124411464,0,
00:00:10.724,0.000319791084621102,0,
00:00:10.728,0.00163511815480888,0,
00:00:10.732,0.00122941588051617,0,
00:00:10.736,0.000329744361806661,0,
00:00:10.74,-0.000351602328009903,0,
00:00:10.744,0.00149487180169672,0,
00:00:10.748,-0.00242156093008816,0,
00:00:10.752,-0.00180473597720265,0,
00:00:10.756,-0.00217242911458015,0,
00:00:10.76,0.00300971232354641,0,
00:00:10.764,0.00492144376039505,0,
00:00:10.768,-0.00107589061371982,0,
00:00:10.772,-0.00239976774901152,0,
00:00:10.776,-0.00155547889880836,0,
00:00:10.78,-0.00025625602575019,0,
00:00:10.784,0.000603944761678576,0,
00:00:10.788,-0.00126775982789695,0,
00:00:10.792,0.00459823198616505,0,
00:00:10.796,-0.000194447697140276,0,
00:00:10.8,-0.0016356180422008,0,
00:00:10.804,-0.00130326056387275,0,
00:00:10.808,-0.000414776441175491,0,
00:00:10.812,0.00029653258388862,0,
00:00:10.816,0.000567001290619373,0,
00:00:10.82,0.000462369789602235,0,
00:00:10.824,0.000189458078239113,0,
00:00:10.828,-5.89041846978944E-05,0,
00:00:10.832,-0.00018248672131449,0,
00:00:10.836,-0.000177961599547416,0,
00:00:10.84,-9.94712027022615E-05,0,
00:00:10.844,-1.10175415102276E-05,0,
00:00:10.848,4.54220535175409E-05,0,
00:00:10.852,5.89381234021857E-05,0,
00:00:10.856,4.15487411373761E-05,0,
00:00:10.86,1.35476720970473E-05,0,
00:00:10.864,-8.63855439092731E-06,0,
00:00:10.868,-1.78986956598237E-05,0,
00:00:10.872,-1.56241603690432E-05,0,
00:00:10.876,-0.0020833620801568,0,
00:00:10.88,0.00197570072486997,0,
00:00:10.884,0.00372269423678517,0,
00:00:10.888,-0.0017928775632754,0,
00:00:10.892,-0.00455716112628579,0,
00:00:10.896,0.00284719397313893,0,
00:00:10.9,-0.000122214099974371,0,
00:00:10.904,-0.000520761939696968,0,
00:00:10.908,-0.00216534524224699,0,
00:00:10.912,0.00228044367395341,0,
00:00:10.916,0.00204063998535275,0,
00:00:10.92,0.000430049636634067,0,
00:00:10.924,-0.000808065524324775,0,
00:00:10.928,0.000924871361348778,0,
00:00:10.932,-0.00277677946723998,0,
00:00:10.936,-0.00392868835479021,0,
00:00:10.94,0.00412413012236357,0,
00:00:10.944,-0.00114126107655466,0,
00:00:10.948,0.00188862741924822,0,
00:00:10.952,0.00141171063296497,0,
00:00:10.956,5.30372308276128E-05,0,
00:00:10.96,-0.00709074782207608,0,
00:00:10.964,0.0111429076641798,0,
00:00:10.968,0.000452058768132702,0,
00:00:10.972,-0.00854568369686604,0,
00:00:10.976,-0.00038203876465559,0,
00:00:10.98,-0.000687305466271937,0,
00:00:10.984,-0.00122291210573167,0,
00:00:10.988,0.00373880169354379,0,
00:00:10.992,0.00319607695564628,0,
00:00:10.996,0.000870185845997185,0,
00:00:11,0.00105819769669324,0,
00:00:11.004,-0.00572979869320989,0,
00:00:11.008,-0.000971178058534861,0,
00:00:11.012,0.00304975500330329,0,
00:00:11.016,-0.000738323491532356,0,
00:00:11.02,0.00116836198139936,0,
00:00:11.024,-0.00618744362145662,0,
00:00:11.028,-0.00542658986523747,0,
00:00:11.032,0.0241251233965158,0,
00:00:11.036,0.00044696478289552,0,
00:00:11.04,-0.0220396034419537,0,
00:00:11.044,0.00891027227044106,0,
00:00:11.048,-0.0104080652818084,0,
00:00:11.052,0.00308767356909812,0,
00:00:11.056,0.00838300585746765,0,
00:00:11.06,9.20965103432536E-05,0,
00:00:11.064,0.00306587014347315,0,
00:00:11.068,-0.00226735603064299,0,
00:00:11.072,-0.00509559735655785,0,
00:00:11.076,0.00235225982032716,0,
00:00:11.08,-0.00458067003637552,0,
00:00:11.084,0.00542976707220078,0,
00:00:11.088,0.0013126153498888,0,
00:00:11.092,-0.000826660252641886,0,
00:00:11.096,-0.00756235001608729,0,
00:00:11.1,0.0112532582134008,0,
00:00:11.104,-0.00120435073040426,0,
00:00:11.108,-0.00201616785489023,0,
00:00:11.112,-0.00664139678701758,0,
00:00:11.116,0.000139656054670922,0,
00:00:11.12,-0.0117344204336405,0,
00:00:11.124,0.0288968905806541,0,
00:00:11.128,0.00290871364995837,0,
00:00:11.132,-0.002493278356269,0,
00:00:11.136,-0.0153700849041343,0,
00:00:11.14,-0.0118149509653449,0,
00:00:11.144,-0.00860604643821716,0,
00:00:11.148,0.0131919728592038,0,
00:00:11.152,0.0211218595504761,0,
00:00:11.156,-0.00696659088134766,0,
00:00:11.16,-0.00642883172258735,0,
00:00:11.164,0.0248305425047874,0,
00:00:11.168,-0.00365082989446819,0,
00:00:11.172,-0.0324143320322037,0,
00:00:11.176,-0.0103374291211367,0,
00:00:11.18,0.0116410600021482,0,
00:00:11.184,0.0263064112514257,0,
00:00:11.188,0.0203223899006844,0,
00:00:11.192,-0.0482473224401474,0,
00:00:11.196,-0.0113439979031682,0,
00:00:11.2,0.0157878492027521,0,
00:00:11.204,0.00657891994342208,0,
00:00:11.208,0.00886077620089054,0,
00:00:11.212,0.00742555968463421,0,
00:00:11.216,-0.00634363619610667,0,
00:00:11.22,-0.0185280740261078,0,
00:00:11.224,0.00743498560041189,0,
00:00:11.228,0.0102007333189249,0,
00:00:11.232,-0.00438451208174229,0,
00:00:11.236,-0.00498109823092818,0,
00:00:11.24,-0.0179590862244368,0,
00:00:11.244,0.0236590132117271,0,
00:00:11.248,0.0387799255549908,0,
00:00:11.252,-0.0460349656641483,0,
00:00:11.256,0.00253489543683827,0,
00:00:11.26,-0.00318869552575052,0,
00:00:11.264,-0.0170383527874947,0,
00:00:11.268,0.00807785615324974,0,
00:00:11.272,0.0139621775597334,0,
00:00:11.276,0.00911389570683241,0,
00:00:11.28,-0.00470976158976555,0,
00:00:11.284,-0.00411774590611458,0,
00:00:11.288,0.0179868098348379,0,
00:00:11.292,-0.014427412301302,0,
00:00:11.296,-0.0154638765379786,0,
00:00:11.3,0.00743612367659807,0,
00:00:11.304,0.00307102524675429,0,
00:00:11.308,0.00522876204922795,0,
00:00:11.312,-0.00162144564092159,0,
00:00:11.316,-0.0198310427367687,0,
00:00:11.32,0.00549116544425488,0,
00:00:11.324,0.0292091574519873,0,
00:00:11.328,0.0219605751335621,0,
00:00:11.332,-0.0434208065271378,0,
00:00:11.336,-0.02837866358459,0,
00:00:11.34,0.0123440781608224,0,
00:00:11.344,0.0220049861818552,0,
00:00:11.348,0.0162317380309105,0,
00:00:11.352,-0.0104902759194374,0,
00:00:11.356,-0.0129579277709126,0,
00:00:11.36,0.00673217605799437,0,
00:00:11.364,0.00447688437998295,0,
00:00:11.368,-0.0161377936601639,0,
00:00:11.372,0.0113389547914267,0,
00:00:11.376,0.00159513403195888,0,
00:00:11.38,-0.00384769681841135,0,
00:00:11.384,0.00432915054261684,0,
00:00:11.388,-0.000896821089554578,0,
00:00:11.392,-0.00887949299067259,0,
00:00:11.396,0.00396325206384063,0,
00:00:11.4,0.00244285468943417,0,
00:00:11.404,-0.000821986526716501,0,
00:00:11.408,0.0063904169946909,0,
00:00:11.412,-0.00061271438607946,0,
00:00:11.416,-0.0181412529200315,0,
00:00:11.42,0.0105919940397143,0,
00:00:11.424,0.0205755028873682,0,
00:00:11.428,-0.01846032589674,0,
00:00:11.432,-0.00483563495799899,0,
00:00:11.436,0.00351075036451221,0,
00:00:11.44,0.00309567293152213,0,
00:00:11.444,-0.01185651589185,0,
00:00:11.448,0.00868357811123133,0,
00:00:11.452,0.00837196037173271,0,
00:00:11.456,0.00185003876686096,0,
00:00:11.46,0.00918058678507805,0,
00:00:11.464,-0.0144830690696836,0,
00:00:11.468,-0.0233970247209072,0,
00:00:11.472,0.00644580787047744,0,
00:00:11.476,0.00846656691282988,0,
00:00:11.48,0.0160565879195929,0,
00:00:11.484,-0.00571567006409168,0,
00:00:11.488,-0.00851981528103352,0,
00:00:11.492,0.0128266485407948,0,
00:00:11.496,-0.00406061531975865,0,
00:00:11.5,-0.0108701447024941,0,
00:00:11.504,0.00467353267595172,0,
00:00:11.508,-0.000181851937668398,0,
00:00:11.512,-0.00449600256979465,0,
00:00:11.516,0.00244083045981824,0,
00:00:11.52,0.00837119668722153,0,
00:00:11.524,0.000855004938784987,0,
00:00:11.528,-0.00493738288059831,0,
00:00:11.532,0.00284322281368077,0,
00:00:11.536,-0.00627348991110921,0,
00:00:11.54,-0.00545674748718739,0,
00:00:11.544,0.0136305605992675,0,
00:00:11.548,-0.0150550361722708,0,
00:00:11.552,0.0132655864581466,0,
00:00:11.556,0.0019357786513865,0,
00:00:11.56,-0.00498075503855944,0,
00:00:11.564,0.000669920875225216,0,
00:00:11.568,-0.00214112480171025,0,
00:00:11.572,-0.00354442722164094,0,
00:00:11.576,0.00201470800675452,0,
00:00:11.58,0.010967256501317,0,
00:00:11.584,-0.0127976639196277,0,
00:00:11.588,-0.000779507448896766,0,
00:00:11.592,-0.00292274146340787,0,
00:00:11.596,0.0130520956590772,0,
00:00:11.6,0.00413328036665916,0,
00:00:11.604,-0.00115055777132511,0,
00:00:11.608,-0.00975096225738525,0,
00:00:11.612,-0.00596050778403878,0,
00:00:11.616,-0.00399792660027742,0,
00:00:11.62,0.0098410677164793,0,
00:00:11.624,-0.000767366960644722,0,
00:00:11.628,0.00494487630203366,0,
00:00:11.632,0.013541541993618,0,
00:00:11.636,-0.0060988524928689,0,
00:00:11.64,-0.0127055626362562,0,
00:00:11.644,-0.00692471209913492,0,
00:00:11.648,-0.00356610771268606,0,
00:00:11.652,0.00876547861844301,0,
00:00:11.656,0.00832339562475681,0,
00:00:11.66,0.00110283342655748,0,
00:00:11.664,0.00256029702723026,0,
00:00:11.668,-0.00595883000642061,0,
00:00:11.672,-0.000548445852473378,0,
00:00:11.676,-0.00697250897064805,0,
00:00:11.68,0.00456167850643396,0,
00:00:11.684,0.0059352838434279,0,
00:00:11.688,-0.00785451848059893,0,
00:00:11.692,-0.00385127426125109,0,
00:00:11.696,0.0106207290664315,0,
00:00:11.7,0.00116361863911152,0,
00:00:11.704,-0.000474639964522794,0,
00:00:11.708,-0.00675284396857023,0,
00:00:11.712,0.00108406960498542,0,
00:00:11.716,-0.00454872893169522,0,
00:00:11.72,0.00422238791361451,0,
00:00:11.724,0.00423388089984655,0,
00:00:11.728,-0.000730151310563087,0,
00:00:11.732,0.0153670059517026,0,
00:00:11.736,-0.0246183890849352,0,
00:00:11.74,-0.000980099197477102,0,
00:00:11.744,0.00148379651363939,0,
00:00:11.748,0.000164821743965149,0,
00:00:11.752,0.0125343631953001,0,
00:00:11.756,0.0142071237787604,0,
00:00:11.76,-0.0168838147073984,0,
00:00:11.764,-0.011525696143508,0,
00:00:11.768,0.0024224182125181,0,
00:00:11.772,0.000729656487237662,0,
00:00:11.776,0.00061705510597676,0,
00:00:11.78,0.0116363307461143,0,
00:00:11.784,-0.00195811339654028,0,
00:00:11.788,-0.00222231214866042,0,
00:00:11.792,-0.000225390220293775,0,
00:00:11.796,-0.00566039234399796,0,
00:00:11.8,-0.00228167953900993,0,
00:00:11.804,0.0141708506271243,0,
00:00:11.808,-0.0126849729567766,0,
00:00:11.812,-0.00538048101589084,0,
00:00:11.816,0.00919948797672987,0,
00:00:11.82,0.0045079393312335,0,
00:00:11.824,0.000129917694721371,0,
00:00:11.828,-0.0022057625465095,0,
00:00:11.832,-0.00244175642728806,0,
00:00:11.836,-0.00143109576310962,0,
00:00:11.84,0.0039743185043335,0,
00:00:11.844,-0.00537378573790193,0,
00:00:11.848,-0.00251945434138179,0,
00:00:11.852,0.00803463906049728,0,
00:00:11.856,-0.00438739731907845,0,
00:00:11.86,0.00401201611384749,0,
00:00:11.864,-0.00406791409477592,0,
00:00:11.868,0.00469650933519006,0,
00:00:11.872,0.00422319024801254,0,
00:00:11.876,-0.00786196626722813,0,
00:00:11.88,-0.000990201951935887,0,
00:00:11.884,-0.00562011357396841,0,
00:00:11.888,0.00228591705672443,0,
00:00:11.892,0.00699088210240006,0,
00:00:11.896,0.00584290735423565,0,
00:00:11.9,-0.00253003067336977,0,
00:00:11.904,-0.00247183139435947,0,
00:00:11.908,-0.00505547178909183,0,
00:00:11.912,-0.00855201575905085,0,
00:00:11.916,0.0130258658900857,0,
00:00:11.92,0.00143894925713539,0,
00:00:11.924,-0.00215968955308199,0,
00:00:11.928,-0.00198337901383638,0,
00:00:11.932,-0.000674421957228333,0,
00:00:11.936,0.00246794731356204,0,
00:00:11.94,-0.00742469448596239,0,
00:00:11.944,0.00904026068747044,0,
00:00:11.948,0.00515163177624345,0,
00:00:11.952,-0.0101562272757292,0,
00:00:11.956,-0.00148321560118347,0,
00:00:11.96,0.00190155790187418,0,
00:00:11.964,0.00215345784090459,0,
00:00:11.968,0.00108572200406343,0,
00:00:11.972,-5.90544696024153E-05,0,
00:00:11.976,-0.00483764102682471,0,
00:00:11.98,0.00321998912841082,0,
00:00:11.984,0.00701341358944774,0,
00:00:11.988,-0.00156901672016829,0,
00:00:11.992,-0.0108989188447595,0,
00:00:11.996,-0.00191725406330079,0,
00:00:12,0.00569186778739095,0,
00:00:12.004,0.0110207833349705,0,
00:00:12.008,-0.00873104203492403,0,
00:00:12.012,-0.00026405430980958,0,
00:00:12.016,-0.00357172568328679,0,
00:00:12.02,-0.000582255423069,0,
00:00:12.024,0.00425298791378737,0,
00:00:12.028,0.00494851870462298,0,
00:00:12.032,0.000242396054090932,0,
00:00:12.036,-0.00728898867964745,0,
00:00:12.04,-0.00376216717995703,0,
00:00:12.044,-0.00304673332720995,0,
00:00:12.048,0.0177866574376822,0,
00:00:12.052,-0.00145391991827637,0,
00:00:12.056,-0.00856497697532177,0,
00:00:12.06,0.00152732280548662,0,
00:00:12.064,-0.00325837242417037,0,
00:00:12.068,-0.00146710325498134,0,
00:00:12.072,0.00116733775939792,0,
00:00:12.076,0.00234265881590545,0,
00:00:12.08,0.00192984915338457,0,
00:00:12.084,-0.00133080128580332,0,
00:00:12.088,0.00370201910845935,0,
00:00:12.092,-0.00121892348397523,0,
00:00:12.096,-0.00230743899010122,0,
00:00:12.1,-0.00148548185825348,0,
00:00:12.104,-0.00231004459783435,0,
00:00:12.108,0.00673803174868226,0,
00:00:12.112,-0.00355949741788208,0,
00:00:12.116,-0.00263111013919115,0,
00:00:12.12,-0.00156054692342877,0,
00:00:12.124,0.00835586246103048,0,
00:00:12.128,0.0100972121581435,0,
00:00:12.132,-0.0121874371543527,0,
00:00:12.136,-0.00983299314975739,0,
00:00:12.14,-0.00127394858282059,0,
00:00:12.144,0.01086251065135,0,
00:00:12.148,-0.00224962504580617,0,
00:00:12.152,0.00474440958350897,0,
00:00:12.156,0.00177097041159868,0,
00:00:12.16,-0.00830111932009459,0,
00:00:12.164,-0.00172681116964668,0,
00:00:12.168,0.00628528278321028,0,
00:00:12.172,0.00309948762878776,0,
00:00:12.176,-0.00548519846051931,0,
00:00:12.18,0.00273125944659114,0,
00:00:12.184,-0.00138724851422012,0,
00:00:12.188,-0.0063446699641645,0,
00:00:12.192,-0.00343047431670129,0,
00:00:12.196,0.0115165840834379,0,
00:00:12.2,0.00229348172433674,0,
00:00:12.204,-0.00175555341411382,0,
00:00:12.208,-0.00666052522137761,0,
00:00:12.212,0.00439842650666833,0,
00:00:12.216,0.00507089355960488,0,
00:00:12.22,-0.0109971761703491,0,
00:00:12.224,0.00358920730650425,0,
00:00:12.228,0.00400989968329668,0,
00:00:12.232,-0.00974484346807003,0,
00:00:12.236,0.0163496118038893,0,
00:00:12.24,-0.00194280571304262,0,
00:00:12.244,-0.0152597595006227,0,
00:00:12.248,0.000926476379390806,0,
00:00:12.252,0.00972369965165854,0,
00:00:12.256,-0.00177552993409336,0,
00:00:12.26,-0.000129610067233443,0,
00:00:12.264,0.00633930647745728,0,
00:00:12.268,-0.0185064729303122,0,
00:00:12.272,0.0128215812146664,0,
00:00:12.276,0.00305241486057639,0,
00:00:12.28,-0.00154032383579761,0,
00:00:12.284,-0.00461114197969437,0,
00:00:12.288,-0.00175695715006441,0,
00:00:12.292,0.00536241848021746,0,
00:00:12.296,0.00251205847598612,0,
00:00:12.3,-0.00342247262597084,0,
00:00:12.304,-0.000982781639322639,0,
00:00:12.308,-0.00898071564733982,0,
00:00:12.312,0.0053147105500102,0,
00:00:12.316,0.00842686742544174,0,
00:00:12.32,0.0026513165794313,0,
00:00:12.324,-0.00682429084554315,0,
00:00:12.328,-0.00674098776653409,0,
00:00:12.332,0.00802863668650389,0,
00:00:12.336,0.00241474970243871,0,
00:00:12.34,-0.00798911973834038,0,
00:00:12.344,-0.00118805991951376,0,
00:00:12.348,0.0110370321199298,0,
00:00:12.352,-0.00253042997792363,0,
00:00:12.356,-0.0108582815155387,0,
00:00:12.36,0.00574117992073298,0,
00:00:12.364,0.00549197988584638,0,
00:00:12.368,-0.00125968526117504,0,
00:00:12.372,-0.0109249884262681,0,
00:00:12.376,0.0125434417277575,0,
00:00:12.38,0.000515215157065541,0,
00:00:12.384,-0.0034441000316292,0,
00:00:12.388,-0.00297803222201765,0,
00:00:12.392,0.00107028370257467,0,
00:00:12.396,-0.00546428468078375,0,
00:00:12.4,0.00364116276614368,0,
00:00:12.404,0.00837326422333717,0,
00:00:12.408,-0.00642558000981808,0,
00:00:12.412,-0.000105992607132066,0,
00:00:12.416,0.00523485383018851,0,
00:00:12.42,-0.00559086445719004,0,
00:00:12.424,0.000427213526563719,0,
00:00:12.428,-0.00132404663600028,0,
00:00:12.432,0.00181604805402458,0,
00:00:12.436,-0.00522560812532902,0,
00:00:12.44,0.00146511569619179,0,
00:00:12.444,0.010069327428937,0,
00:00:12.448,0.00114498694892973,0,
00:00:12.452,-0.0122899012640119,0,
00:00:12.456,0.00323590403422713,0,
00:00:12.46,0.00392436282709241,0,
00:00:12.464,-0.00146074069198221,0,
00:00:12.468,-0.0060697658918798,0,
00:00:12.472,0.00535624567419291,0,
00:00:12.476,0.00180919095873833,0,
00:00:12.48,-0.000337096164003015,0,
00:00:12.484,0.00511912442743778,0,
00:00:12.488,-0.0068649030290544,0,
00:00:12.492,-0.00531033705919981,0,
00:00:12.496,-0.0087146507576108,0,
00:00:12.5,0.0128691308200359,0,
00:00:12.504,0.00594805926084518,0,
00:00:12.508,0.0051959496922791,0,
00:00:12.512,-0.00362527766264975,0,
00:00:12.516,-0.0015817639650777,0,
00:00:12.52,-0.00988705828785896,0,
00:00:12.524,-0.00425386009737849,0,
00:00:12.528,0.0108117815107107,0,
00:00:12.532,-0.00660716462880373,0,
00:00:12.536,0.00604207627475262,0,
00:00:12.54,0.00242856307886541,0,
00:00:12.544,0.00593505334109068,0,
00:00:12.548,-0.00747576029971242,0,
00:00:12.552,-0.0126851480454206,0,
00:00:12.556,0.000411703658755869,0,
00:00:12.56,0.0134242307394743,0,
00:00:12.564,0.00949578359723091,0,
00:00:12.568,-0.0115840388461947,0,
00:00:12.572,0.00244403607212007,0,
00:00:12.576,-0.00120864156633615,0,
00:00:12.58,-0.00691249407827854,0,
00:00:12.584,-0.000192633931874298,0,
00:00:12.588,0.000690321088768542,0,
00:00:12.592,0.00689828349277377,0,
00:00:12.596,0.00116382364649326,0,
00:00:12.6,-0.00352834863588214,0,
00:00:12.604,0.00423874566331506,0,
00:00:12.608,-0.00557446060702205,0,
00:00:12.612,-0.00345751363784075,0,
00:00:12.616,0.00281422818079591,0,
00:00:12.62,0.00306124845519662,0,
00:00:12.624,0.00534353265538812,0,
00:00:12.628,-0.00448992568999529,0,
00:00:12.632,-0.00663521979004145,0,
00:00:12.636,0.00260737608186901,0,
00:00:12.64,0.000890172086656094,0,
00:00:12.644,0.000723890552762896,0,
00:00:12.648,-0.00347018660977483,0,
00:00:12.652,0.00644206115975976,0,
00:00:12.656,0.00550594925880432,0,
00:00:12.66,-0.0117001933977008,0,
00:00:12.664,0.000451006169896573,0,
00:00:12.668,0.00517506897449493,0,
00:00:12.672,-0.0001097986169043,0,
00:00:12.676,-0.00371114443987608,0,
00:00:12.68,-0.00133409176487476,0,
00:00:12.684,0.00541079835966229,0,
00:00:12.688,0.000272374454652891,0,
00:00:12.692,0.00249191815964878,0,
00:00:12.696,-0.00759416306391358,0,
00:00:12.7,-0.0019627867732197,0,
00:00:12.704,-0.000574511068407446,0,
00:00:12.708,0.00654699234291911,0,
00:00:12.712,-0.000597265257965773,0,
00:00:12.716,0.00105780828744173,0,
00:00:12.72,0.00431356532499194,0,
00:00:12.724,-0.00897226762026548,0,
00:00:12.728,-0.000507732154801488,0,
00:00:12.732,0.00211453251540661,0,
00:00:12.736,0.00390559691004455,0,
00:00:12.74,0.000738333910703659,0,
00:00:12.744,-0.0101868603378534,0,
00:00:12.748,0.00546024600043893,0,
00:00:12.752,-0.00112653512042016,0,
00:00:12.756,0.00862889643758535,0,
00:00:12.76,0.000454592955065891,0,
00:00:12.764,-0.00825872831046581,0,
00:00:12.768,-0.00255134329199791,0,
00:00:12.772,0.00297674140892923,0,
00:00:12.776,-0.00195259100291878,0,
00:00:12.78,-1.20555196190253E-05,0,
00:00:12.784,0.00623664446175098,0,
00:00:12.788,-0.00157712958753109,0,
00:00:12.792,-0.00201478158123791,0,
00:00:12.796,0.00158327410463244,0,
00:00:12.8,0.00697449222207069,0,
00:00:12.804,-0.0086803250014782,0,
00:00:12.808,-0.00836433097720146,0,
00:00:12.812,0.0061782612465322,0,
00:00:12.816,0.00374434469267726,0,
00:00:12.82,0.00541976792737842,0,
00:00:12.824,-0.00438937498256564,0,
00:00:12.828,-0.0106297181919217,0,
00:00:12.832,0.00874003116041422,0,
00:00:12.836,0.00219590007327497,0,
00:00:12.84,-0.000656296615488827,0,
00:00:12.844,-0.00545357260853052,0,
00:00:12.848,0.00721119344234467,0,
00:00:12.852,-0.0029721250757575,0,
00:00:12.856,-0.00071665202267468,0,
00:00:12.86,-1.24116577353561E-05,0,
00:00:12.864,9.51906185946427E-05,0,
00:00:12.868,4.84819138364401E-05,0,
00:00:12.872,-0.00414291303604841,0,
00:00:12.876,0.0101825203746557,0,
00:00:12.88,-0.00262311869300902,0,
00:00:12.884,-0.00869314931333065,0,
00:00:12.888,0.00176431145519018,0,
00:00:12.892,0.00585275189951062,0,
00:00:12.896,0.000207029646844603,0,
00:00:12.9,0.000472871586680412,0,
00:00:12.904,-0.00544447498396039,0,
00:00:12.908,-0.0022531698923558,0,
00:00:12.912,0.00367912626825273,0,
00:00:12.916,0.00321235717274249,0,
00:00:12.92,0.00498531619086862,0,
00:00:12.924,-0.00705964211374521,0,
00:00:12.928,-0.00293179368600249,0,
00:00:12.932,-0.00405587768182158,0,
00:00:12.936,0.00959349982440472,0,
00:00:12.94,0.000847640912979841,0,
00:00:12.944,-3.82683319912758E-05,0,
00:00:12.948,-0.00605382258072495,0,
00:00:12.952,-0.00255128857679665,0,
00:00:12.956,0.00370645662769675,0,
00:00:12.96,0.00340794050134718,0,
00:00:12.964,0.00103103055153042,0,
00:00:12.968,0.00114707741886377,0,
00:00:12.972,-0.00359816942363977,0,
00:00:12.976,0.00125371618196368,0,
00:00:12.98,-0.00872510485351086,0,
00:00:12.984,-0.00031435745768249,0,
00:00:12.988,0.00857749301940203,0,
00:00:12.992,-0.00129756913520396,0,
00:00:12.996,0.00735648442059755,0,
00:00:13,-0.00484932074323297,0,
00:00:13.004,-0.000717793533112854,0,
00:00:13.008,-0.00736984191462398,0,
00:00:13.012,0.00429624412208796,0,
00:00:13.016,0.00376898725517094,0,
00:00:13.02,-0.00378854689188302,0,
00:00:13.024,0.00208459189161658,0,
00:00:13.028,0.00117635366041213,0,
00:00:13.032,-0.00281456857919693,0,
00:00:13.036,-0.00580199295654893,0,
00:00:13.04,0.00432388391345739,0,
00:00:13.044,0.00680701714009047,0,
00:00:13.048,-0.000265075534116477,0,
00:00:13.052,-0.00270551606081426,0,
00:00:13.056,-0.0023728224914521,0,
00:00:13.06,-0.00305703561753035,0,
00:00:13.064,0.00640511512756348,0,
00:00:13.068,-0.00350751588121057,0,
00:00:13.072,-0.000303320673992857,0,
00:00:13.076,0.000874043791554868,0,
00:00:13.08,0.000836967548821121,0,
00:00:13.084,0.00240496080368757,0,
00:00:13.088,-0.00211871671490371,0,
00:00:13.092,-0.00200226926244795,0,
00:00:13.096,-0.00257925130426884,0,
00:00:13.1,0.00265731010586023,0,
00:00:13.104,0.00475442735478282,0,
00:00:13.108,0.00101452076341957,0,
00:00:13.112,-0.00633545452728868,0,
00:00:13.116,-0.00109700520988554,0,
00:00:13.12,0.00336184492334723,0,
00:00:13.124,-0.00033543081372045,0,
00:00:13.128,-0.00067563692573458,0,
