Elapsed Time,Ch1,BioRadio Event,
00:00:00,1.54022884368896,0,
00:00:00.004,-1.46776497364044,0,
00:00:00.008,-1.21642053127289,0,
00:00:00.012,-0.127644702792168,0,
00:00:00.016,0.623511135578156,0,
00:00:00.02,0.757943093776703,0,
00:00:00.024,0.468649327754974,0,
00:00:00.028,0.0645270198583603,0,
00:00:00.032,-0.224185720086098,0,
00:00:00.036,-0.3070307970047,0,
00:00:00.04,-0.225166082382202,0,
00:00:00.044,-0.0775772035121918,0,
00:00:00.048,0.0367835313081741,0,
00:00:00.052,0.0824788734316826,0,
00:00:00.056,0.0784555673599243,0,
00:00:00.06,0.0477959141135216,0,
00:00:00.064,0.00479454081505537,0,
00:00:00.068,-0.0256070382893085,0,
00:00:00.072,-0.0362932756543159,0,
00:00:00.076,-0.00896484684199095,0,
00:00:00.08,-0.00124735094141215,0,
00:00:00.084,-0.000690200715325773,0,
00:00:00.088,0.00487555889412761,0,
00:00:00.092,0.00938701257109642,0,
00:00:00.096,0.00987278763204813,0,
00:00:00.1,-0.00561445904895663,0,
00:00:00.104,-0.00637519173324108,0,
00:00:00.108,0.00169471523258835,0,
00:00:00.112,0.00121703068725765,0,
00:00:00.116,-0.00487723248079419,0,
00:00:00.12,-0.00176338606979698,0,
00:00:00.124,0.00609979871660471,0,
00:00:00.128,0.003463055472821,0,
00:00:00.132,-0.00280254357494414,0,
00:00:00.136,-0.00503821158781648,0,
00:00:00.14,-0.00117637577932328,0,
00:00:00.144,0.00837234500795603,0,
00:00:00.148,-0.000862796208821237,0,
00:00:00.152,-0.0049897413700819,0,
00:00:00.156,-0.00192611163947731,0,
00:00:00.16,0.0055428147315979,0,
00:00:00.164,0.00280767912045121,0,
00:00:00.168,-0.00530745554715395,0,
00:00:00.172,-0.00314923701807857,0,
00:00:00.176,0.00479127326980233,0,
00:00:00.18,0.000713257701136172,0,
00:00:00.184,-0.00082554534310475,0,
00:00:00.188,-0.0029926928691566,0,
00:00:00.192,0.00362054351717234,0,
00:00:00.196,0.00180944066960365,0,
00:00:00.2,-0.00519471056759357,0,
00:00:00.204,-0.00244336389005184,0,
00:00:00.208,0.00342581328004599,0,
00:00:00.212,0.00513897370547056,0,
00:00:00.216,-0.00116226868703961,0,
00:00:00.22,-0.00469187647104263,0,
00:00:00.224,0.000251218618359417,0,
00:00:00.228,0.00549413729459047,0,
00:00:00.232,-0.00518127111718059,0,
00:00:00.236,-0.00331168132834136,0,
00:00:00.24,0.00287335272878408,0,
00:00:00.244,0.00720766326412559,0,
00:00:00.248,-0.00281577743589878,0,
00:00:00.252,-0.00805536564439535,0,
00:00:00.256,0.00224980758503079,0,
00:00:00.26,0.00591356493532658,0,
00:00:00.264,0.00203759665600955,0,
00:00:00.268,-0.00597242126241326,0,
00:00:00.272,-0.0033528208732605,0,
00:00:00.276,0.00494761392474175,0,
00:00:00.28,0.000989571446552873,0,
00:00:00.284,-0.000619219965301454,0,
00:00:00.288,-0.00292983278632164,0,
00:00:00.292,0.00148913054727018,0,
00:00:00.296,0.00368008227087557,0,
00:00:00.3,-0.00156683649402112,0,
00:00:00.304,-0.0042849057354033,0,
00:00:00.308,0.000943511899095029,0,
00:00:00.312,0.00396245205774903,0,
00:00:00.316,-0.000918999721761793,0,
00:00:00.32,-0.00372642115689814,0,
00:00:00.324,0.00118711683899164,0,
00:00:00.328,0.00390255311504006,0,
00:00:00.332,-0.00113869109191,0,
00:00:00.336,-0.0039490507915616,0,
00:00:00.34,0.00105676287785172,0,
00:00:00.344,0.00388156482949853,0,
00:00:00.348,-0.00108686462044716,0,
00:00:00.352,-0.00387691170908511,0,
00:00:00.356,0.00110982183832675,0,
00:00:00.36,0.00390070071443915,0,
00:00:00.364,0.000980010023340583,0,
00:00:00.368,-0.00587370386347175,0,
00:00:00.372,-0.00262759230099618,0,
00:00:00.376,0.00568890944123268,0,
00:00:00.38,0.00346460659056902,0,
00:00:00.384,-0.00466334959492087,0,
00:00:00.388,-0.00283309165388346,0,
00:00:00.392,0.00474732741713524,0,
00:00:00.396,0.00253421696834266,0,
00:00:00.4,-0.00515513448044658,0,
00:00:00.404,-0.00283655384555459,0,
00:00:00.408,0.00296623189933598,0,
00:00:00.412,0.00693304836750031,0,
00:00:00.416,-0.00525682372972369,0,
00:00:00.42,-0.00423658359795809,0,
00:00:00.424,0.00188628595788032,0,
00:00:00.428,0.00456485990434885,0,
00:00:00.432,-0.000897708814591169,0,
00:00:00.436,-0.00613679410889745,0,
00:00:00.44,0.00278505007736385,0,
00:00:00.444,0.00532513624057174,0,
00:00:00.448,0.00109505408909172,0,
00:00:00.452,-0.00665320456027985,0,
00:00:00.456,-0.00354226399213076,0,
00:00:00.46,0.00515341805294156,0,
00:00:00.464,0.00342727638781071,0,
00:00:00.468,-0.00436658691614866,0,
00:00:00.472,-0.00245499541051686,0,
00:00:00.476,0.0050165499560535,0,
00:00:00.48,0.00262643327005208,0,
00:00:00.484,-0.00520532904192805,0,
00:00:00.488,-0.00294835306704044,0,
00:00:00.492,0.00494215358048677,0,
00:00:00.496,0.000756108900532126,0,
00:00:00.5,-0.000871926604304463,0,
00:00:00.504,-0.00307502062059939,0,
00:00:00.508,0.00355098862200975,0,
00:00:00.512,0.00177666172385216,0,
00:00:00.516,-0.00519205909222364,0,
00:00:00.52,-0.00242114160209894,0,
00:00:00.524,0.00344996061176062,0,
00:00:00.528,0.0072296797297895,0,
00:00:00.532,-0.00313445273786783,0,
00:00:00.536,-0.00841479375958443,0,
00:00:00.54,0.00204178644344211,0,
00:00:00.544,0.00797298178076744,0,
00:00:00.548,-0.00190316105727106,0,
00:00:00.552,-0.00549840927124023,0,
00:00:00.556,-0.00178818276617676,0,
00:00:00.56,0.00600077025592327,0,
00:00:00.564,0.00323071121238172,0,
00:00:00.568,-0.00303369131870568,0,
00:00:00.572,-0.00515798479318619,0,
00:00:00.576,0.00091103179147467,0,
00:00:00.58,0.00649117166176438,0,
00:00:00.584,-0.00447245640680194,0,
00:00:00.588,-0.00311843072995543,0,
00:00:00.592,0.00473273592069745,0,
00:00:00.596,0.000704903563018888,0,
00:00:00.6,-0.000820694025605917,0,
00:00:00.604,-0.00301722763106227,0,
00:00:00.608,0.00148674345109612,0,
00:00:00.612,0.00371599872596562,0,
00:00:00.616,-0.00153071980457753,0,
00:00:00.62,-0.00426743412390351,0,
00:00:00.624,0.000941197678912431,0,
00:00:00.628,0.00394906243309379,0,
00:00:00.632,-0.000933249539230019,0,
00:00:00.636,-0.00373506150208414,0,
00:00:00.64,-0.000890288793016225,0,
00:00:00.644,0.00795685313642025,0,
00:00:00.648,-0.00146731082350016,0,
00:00:00.652,-0.0054105338640511,0,
00:00:00.656,-0.00203744368627667,0,
00:00:00.66,0.00567148812115192,0,
00:00:00.664,0.00302666076458991,0,
00:00:00.668,-0.00512758363038301,0,
00:00:00.672,-0.000992986373603344,0,
00:00:00.676,0.00072811747668311,0,
00:00:00.68,0.00306132063269615,0,
00:00:00.684,-0.00347511074505746,0,
00:00:00.688,-0.00167733139824122,0,
00:00:00.692,0.00526399351656437,0,
00:00:00.696,0.0024467206094414,0,
00:00:00.7,-0.0055381041020155,0,
00:00:00.704,-0.00320780929178,0,
00:00:00.708,0.0048503871075809,0,
00:00:00.712,0.00288506597280502,0,
00:00:00.716,-0.00272849621251225,0,
00:00:00.72,-0.00460938783362508,0,
00:00:00.724,0.00135370681528002,0,
00:00:00.728,0.00459607923403382,0,
00:00:00.732,-0.000477491121273488,0,
00:00:00.736,-0.00362536241300404,0,
00:00:00.74,0.00102272164076567,0,
00:00:00.744,0.00364169594831765,0,
00:00:00.748,-0.00134931493084878,0,
00:00:00.752,-0.00404198514297605,0,
00:00:00.756,-0.00100391730666161,0,
00:00:00.76,0.00592853268608451,0,
00:00:00.764,0.00062914501177147,0,
00:00:00.768,-0.0036562632303685,0,
00:00:00.772,0.000274256250122562,0,
00:00:00.776,0.0028558736667037,0,
00:00:00.78,0.000325403118040413,0,
00:00:00.784,-0.00597308529540896,0,
00:00:00.788,-0.00233300519175828,0,
00:00:00.792,0.00610077194869518,0,
00:00:00.796,0.00377413677051663,0,
00:00:00.8,-0.00246850890107453,0,
00:00:00.804,-0.00692693237215281,0,
00:00:00.808,0.00288595189340413,0,
00:00:00.812,0.00793793424963951,0,
00:00:00.816,-0.0066048139706254,0,
00:00:00.82,-0.00214543589390814,0,
00:00:00.824,0.00529776653274894,0,
00:00:00.828,0.00236286828294396,0,
00:00:00.832,-0.00365043221972883,0,
00:00:00.836,-0.00532594695687294,0,
00:00:00.84,-0.000959360506385565,0,
00:00:00.844,0.00675249565392733,0,
00:00:00.848,0.00360905285924673,0,
00:00:00.852,-0.00716898264363408,0,
00:00:00.856,0.000683981983456761,0,
00:00:00.86,0.0040848096832633,0,
00:00:00.864,0.00102301372680813,0,
00:00:00.868,-0.0060243965126574,0,
00:00:00.872,-0.00281534483656287,0,
00:00:00.876,0.0055912658572197,0,
00:00:00.88,0.00348682305775583,0,
00:00:00.884,-0.00456506479531527,0,
00:00:00.888,-0.00272435997612774,0,
00:00:00.892,0.00481927394866943,0,
00:00:00.896,0.00255530746653676,0,
00:00:00.9,-0.00517230853438377,0,
00:00:00.904,-0.00286860135383904,0,
00:00:00.908,0.00501502491533756,0,
00:00:00.912,0.00494525535032153,0,
00:00:00.916,-0.00689752027392387,0,
00:00:00.92,-0.00440479163080454,0,
00:00:00.924,0.00273842504248023,0,
00:00:00.928,0.00559818837791681,0,
00:00:00.932,-0.000266066199401394,0,
00:00:00.936,-0.00398143287748098,0,
00:00:00.94,0.000505698786582798,0,
00:00:00.944,0.00119612296111882,0,
00:00:00.948,0.00259010680019856,0,
00:00:00.952,-0.00428060349076986,0,
00:00:00.956,-0.00229058531112969,0,
00:00:00.96,0.00506102852523327,0,
00:00:00.964,0.00259225000627339,0,
00:00:00.968,-0.00731573067605495,0,
00:00:00.972,-0.00096783897606656,0,
00:00:00.976,0.00662599317729473,0,
00:00:00.98,0.00306239351630211,0,
00:00:00.984,-0.00364882359281182,0,
00:00:00.988,-0.00572683708742261,0,
00:00:00.992,0.000664710649289191,0,
00:00:00.996,0.00449939304962754,0,
00:00:01,-0.000159706905833445,0,
00:00:01.004,-0.00318829109892249,0,
00:00:01.008,0.00134780211374164,0,
00:00:01.012,0.00376397627405822,0,
00:00:01.016,-0.00139742891769856,0,
00:00:01.02,-0.00416895374655724,0,
00:00:01.024,0.000953266862779856,0,
00:00:01.028,0.00596615951508284,0,
00:00:01.032,-0.00299150380305946,0,
00:00:01.036,-0.00544242467731237,0,
00:00:01.04,0.000979889067821205,0,
00:00:01.044,0.00475311977788806,0,
00:00:01.048,-8.44867317937315E-05,0,
00:00:01.052,-0.00121658353600651,0,
00:00:01.056,-0.00289799855090678,0,
00:00:01.06,0.00391556043177843,0,
00:00:01.064,-3.73511866200715E-05,0,
00:00:01.068,-0.0010923232184723,0,
00:00:01.072,-0.00287497485987842,0,
00:00:01.076,0.00388103257864714,0,
00:00:01.08,-5.94635348534212E-05,0,
00:00:01.084,-0.00314815295860171,0,
00:00:01.088,0.00122767221182585,0,
00:00:01.092,0.00360383745282888,0,
00:00:01.096,0.000589782721363008,0,
00:00:01.1,-0.0061300378292799,0,
00:00:01.104,-0.000605966371949762,0,
00:00:01.108,0.00173275149427354,0,
00:00:01.112,0.00394293013960123,0,
00:00:01.116,-0.00100894365459681,0,
00:00:01.12,-0.00581739936023951,0,
00:00:01.124,0.00317776249721646,0,
00:00:01.128,0.00553617114201188,0,
00:00:01.132,-0.00100718066096306,0,
00:00:01.136,-0.00485553685575724,0,
00:00:01.14,-2.62148641922977E-05,0,
00:00:01.144,0.00322053511627018,0,
00:00:01.148,-0.00117289007175714,0,
00:00:01.152,-0.00356364902108908,0,
00:00:01.156,0.00153533881530166,0,
00:00:01.16,0.00421510031446815,0,
00:00:01.164,-0.000979029573500156,0,
00:00:01.168,-0.00394661678001285,0,
00:00:01.172,0.000966381514444947,0,
00:00:01.176,0.00169993424788117,0,
00:00:01.18,0.00289475754834712,0,
00:00:01.184,-0.00215281872078776,0,
00:00:01.188,-0.00438694376498461,0,
00:00:01.192,0.00117152254097164,0,
00:00:01.196,0.00426235655322671,0,
00:00:01.2,-0.000727299368008971,0,
00:00:01.204,-0.00369426212273538,0,
00:00:01.208,0.00110455288086087,0,
00:00:01.212,0.00378470192663372,0,
00:00:01.216,-0.00122811237815768,0,
00:00:01.22,-0.00605978025123477,0,
00:00:01.224,0.0051196301355958,0,
00:00:01.228,0.00358230597339571,0,
00:00:01.232,-0.00251942058093846,0,
00:00:01.236,-0.00695484923198819,0,
00:00:01.24,0.00290163769386709,0,
00:00:01.244,0.00593112641945481,0,
00:00:01.248,0.00169510184787214,0,
00:00:01.252,-0.00841700937598944,0,
00:00:01.256,0.000501526112202555,0,
00:00:01.26,0.00462027313187718,0,
00:00:01.264,-0.000344357162248343,0,
00:00:01.268,-0.00356260081753135,0,
00:00:01.272,0.00103722384665161,0,
00:00:01.276,0.0015810119220987,0,
00:00:01.28,0.00273757660761476,0,
00:00:01.284,-0.0043266755528748,0,
00:00:01.288,-0.00242540612816811,0,
00:00:01.292,0.00493442080914974,0,
00:00:01.296,0.00252575124613941,0,
00:00:01.3,-0.0052424049936235,0,
00:00:01.304,-0.0029070214368403,0,
00:00:01.308,0.00502713955938816,0,
00:00:01.312,0.00291409832425416,0,
00:00:01.316,-0.00279815611429513,0,
00:00:01.32,-0.00678264023736119,0,
00:00:01.324,0.00325710768811405,0,
00:00:01.328,0.00621199375018477,0,
00:00:01.332,-0.000288603798253462,0,
00:00:01.336,-0.00443914160132408,0,
00:00:01.34,2.16047101275763E-05,0,
00:00:01.344,0.00302482838742435,0,
00:00:01.348,0.000645113468635827,0,
00:00:01.352,-0.00779974507167935,0,
00:00:01.356,0.00180502166040242,0,
00:00:01.36,0.00571462837979198,0,
00:00:01.364,0.000117791481898166,0,
00:00:01.368,-0.00369288097135723,0,
00:00:01.372,-0.00147197803016752,0,
00:00:01.376,0.00520174158737063,0,
00:00:01.38,0.0021582015324384,0,
00:00:01.384,-0.00374931818805635,0,
00:00:01.388,-0.0053153675980866,0,
00:00:01.392,0.00117272243369371,0,
00:00:01.396,0.00482259737327695,0,
00:00:01.4,-9.81228877208196E-05,0,
00:00:01.404,-0.00331410928629339,0,
00:00:01.408,0.00116264494135976,0,
00:00:01.412,0.00569783709943295,0,
00:00:01.416,-0.00342899234965444,0,
00:00:01.42,-0.00786890275776386,0,
00:00:01.424,0.00280508655123413,0,
00:00:01.428,0.00642658211290836,0,
00:00:01.432,0.00229239813052118,0,
00:00:01.436,-0.00598543602973223,0,
00:00:01.44,-0.00144470401573926,0,
00:00:01.444,0.00278463331051171,0,
00:00:01.448,-0.000771804945543408,0,
00:00:01.452,-0.00497610773891211,0,
00:00:01.456,0.00190063356421888,0,
00:00:01.46,0.010011819191277,0,
00:00:01.464,0.000761047296691686,0,
00:00:01.468,-0.00851097237318754,0,
00:00:01.472,-0.00502480752766132,0,
00:00:01.476,0.00258392700925469,0,
00:00:01.48,0.00778798153623939,0,
00:00:01.484,-0.00407173717394471,0,
00:00:01.488,-0.00339464144781232,0,
00:00:01.492,0.00214751600287855,0,
00:00:01.496,0.00436396664008498,0,
00:00:01.5,0.000788148958235979,0,
00:00:01.504,-0.00844729971140623,0,
00:00:01.508,0.000982986530289054,0,
00:00:01.512,0.00515901111066341,0,
00:00:01.516,-3.18275233439635E-05,0,
00:00:01.52,-0.00353395449928939,0,
00:00:01.524,0.000878421298693866,0,
00:00:01.528,0.00345233571715653,0,
00:00:01.532,-0.00145859294570982,0,
00:00:01.536,-0.00404201215133071,0,
00:00:01.54,-0.000931866932660341,0,
00:00:01.544,0.00601560110226274,0,
00:00:01.548,0.000689163338392973,0,
00:00:01.552,-0.00363730499520898,0,
00:00:01.556,0.000261187582509592,0,
00:00:01.56,0.00490546226501465,0,
00:00:01.564,-0.00374834937974811,0,
00:00:01.568,-0.00565068516880274,0,
00:00:01.572,-0.000867341586854309,0,
00:00:01.576,0.00712765986099839,0,
00:00:01.58,0.0039668632671237,0,
00:00:01.584,-0.00286069558933377,0,
00:00:01.588,-0.00747476890683174,0,
00:00:01.592,0.00457744672894478,0,
00:00:01.596,0.0037764199078083,0,
00:00:01.6,-0.00409115664660931,0,
00:00:01.604,-0.000390900997444987,0,
00:00:01.608,0.000783255323767662,0,
00:00:01.612,0.0027775657363236,0,
00:00:01.616,-0.00382328685373068,0,
00:00:01.62,-0.00190405861940235,0,
00:00:01.624,0.00521155027672648,0,
00:00:01.628,0.00252181757241488,0,
00:00:01.632,-0.00334345945157111,0,
00:00:01.636,-0.00508914003148675,0,
00:00:01.64,-0.000903942971490324,0,
00:00:01.644,0.00664912257343531,0,
00:00:01.648,0.00344010093249381,0,
00:00:01.652,-0.00523671321570873,0,
00:00:01.656,-0.00343809486366808,0,
00:00:01.66,0.00441843923181295,0,
00:00:01.664,0.00252941413782537,0,
00:00:01.668,-0.00495710829272866,0,
00:00:01.672,-0.00259974063374102,0,
00:00:01.676,0.00520192785188556,0,
00:00:01.68,0.00292893312871456,0,
00:00:01.684,-0.0049626100808382,0,
00:00:01.688,-0.000768421043176204,0,
00:00:01.692,0.000869635900016874,0,
00:00:01.696,0.00307955592870712,0,
00:00:01.7,-0.00146863923873752,0,
00:00:01.704,-0.00374705158174038,0,
00:00:01.708,0.00147609051782638,0,
00:00:01.712,0.0042186826467514,0,
00:00:01.716,-0.00304290559142828,0,
00:00:01.72,0.00010006418597186,0,
00:00:01.724,0.000612724921666086,0,
00:00:01.728,0.00228595570661128,0,
00:00:01.732,-0.00219432171434164,0,
00:00:01.736,-0.00616305461153388,0,
00:00:01.74,0.0035039393696934,0,
00:00:01.744,0.00820741709321737,0,
00:00:01.748,-0.00247786403633654,0,
00:00:01.752,-0.00625987118110061,0,
00:00:01.756,-0.0022985830437392,0,
00:00:01.76,0.0058771762996912,0,
00:00:01.764,0.00339747010730207,0,
00:00:01.768,-0.00483933836221695,0,
00:00:01.772,-0.00296595180407166,0,
00:00:01.776,0.00264620967209339,0,
00:00:01.78,0.00457347743213177,0,
00:00:01.784,-0.00134045490995049,0,
00:00:01.788,-0.00455652782693505,0,
00:00:01.792,0.000516838685143739,0,
00:00:01.796,0.0057239942252636,0,
00:00:01.8,-0.00507028307765722,0,
00:00:01.804,-0.00331767182797194,0,
00:00:01.808,0.00487731769680977,0,
00:00:01.812,0.0030770618468523,0,
00:00:01.816,-0.00253237690776587,0,
00:00:01.82,-0.00452573504298925,0,
00:00:01.824,0.00131053035147488,0,
00:00:01.828,0.00448173563927412,0,
00:00:01.832,-0.000592562486417592,0,
00:00:01.836,-0.00369527540169656,0,
00:00:01.84,0.00100766716059297,0,
00:00:01.844,0.00366464350372553,0,
00:00:01.848,-0.00131413200870156,0,
00:00:01.852,-0.00401475420221686,0,
00:00:01.856,0.00108278065454215,0,
00:00:01.86,0.00394992716610432,0,
00:00:01.864,-0.00102305703330785,0,
00:00:01.868,-0.00384310842491686,0,
00:00:01.872,-0.00096417247550562,0,
00:00:01.876,0.00585834681987762,0,
00:00:01.88,0.00260060233995318,0,
00:00:01.884,-0.00363532267510891,0,
00:00:01.888,-0.00544978119432926,0,
00:00:01.892,0.000947124499361962,0,
00:00:01.896,0.0046389838680625,0,
00:00:01.9,-0.000178914240677841,0,
00:00:01.904,-0.00330024259164929,0,
00:00:01.908,0.00122589024249464,0,
00:00:01.912,0.00368703296408057,0,
00:00:01.916,-0.00141556956805289,0,
00:00:01.92,-0.00414504669606686,0,
00:00:01.924,0.000991498702205718,0,
00:00:01.928,0.00392060028389096,0,
00:00:01.932,-0.00100359797943383,0,
00:00:01.936,-0.00380349974147975,0,
00:00:01.94,-0.000929804227780551,0,
00:00:01.944,0.00587488291785121,0,
00:00:01.948,0.00259960512630641,0,
00:00:01.952,-0.00572192622348666,0,
00:00:01.956,-0.0014105997979641,0,
00:00:01.96,0.000606402812991291,0,
00:00:01.964,0.00317235314287245,0,
00:00:01.968,-0.00327199418097734,0,
00:00:01.972,-0.00150600890628994,0,
00:00:01.976,0.00534373568370938,0,
00:00:01.98,0.000363050872692838,0,
00:00:01.984,0.000533051788806915,0,
00:00:01.988,-0.00557619612663984,0,
00:00:01.992,-0.000368941138731316,0,
00:00:01.996,0.00365635589696467,0,
00:00:02,-0.000415620161220431,0,
00:00:02.004,-0.00506419548764825,0,
00:00:02.008,0.00575615232810378,0,
00:00:02.012,0.00370512786321342,0,
00:00:02.016,-0.00276817427948117,0,
00:00:02.02,-0.00732366554439068,0,
00:00:02.024,0.00261659035459161,0,
00:00:02.028,0.00581570947542787,0,
00:00:02.032,0.00172785727772862,0,
00:00:02.036,-0.00623602606356144,0,
00:00:02.04,-0.00137139821890742,0,
00:00:02.044,0.00303504662588239,0,
00:00:02.048,-0.00051560573047027,0,
00:00:02.052,-0.000670602661557496,0,
00:00:02.056,-0.00202025519683957,0,
00:00:02.06,0.00459685828536749,0,
00:00:02.064,0.00022556797193829,0,
00:00:02.068,-0.00119367917068303,0,
00:00:02.072,-0.00522511964663863,0,
00:00:02.076,0.00559702794998884,0,
00:00:02.08,0.00351855019107461,0,
00:00:02.084,-0.00288074417039752,0,
00:00:02.088,-0.0073139313608408,0,
00:00:02.092,0.00479460647329688,0,
00:00:02.096,0.00396836875006557,0,
00:00:02.1,-0.00189366610720754,0,
00:00:02.104,-0.00439748540520668,0,
00:00:02.108,0.00110515346750617,0,
00:00:02.112,0.00420721946284175,0,
00:00:02.116,-0.00283615849912167,0,
00:00:02.12,0.000340090889949352,0,
00:00:02.124,0.000763486314099282,0,
00:00:02.128,0.00231597363017499,0,
00:00:02.132,-0.000174141430761665,0,
00:00:02.136,-0.00822119880467653,0,
00:00:02.14,0.00179828202817589,0,
00:00:02.144,0.00592937506735325,0,
00:00:02.148,0.0024239884223789,0,
00:00:02.152,-0.00761729246005416,0,
00:00:02.156,0.00094113068189472,0,
00:00:02.16,0.00254260934889317,0,
00:00:02.164,0.00342298019677401,0,
00:00:02.168,-0.00423501711338758,0,
00:00:02.172,-0.00273497425951064,0,
00:00:02.176,0.00454115122556686,0,
00:00:02.18,0.00227180100046098,0,
00:00:02.184,-0.005292565561831,0,
00:00:02.188,-0.00280899391509593,0,
00:00:02.192,0.00517340889200568,0,
00:00:02.196,0.00302736298181117,0,
00:00:02.2,-0.00482801673933864,0,
00:00:02.204,-0.00274454685859382,0,
00:00:02.208,0.00288196839392185,0,
00:00:02.212,0.00470621837303042,0,
00:00:02.216,-0.00133102107793093,0,
00:00:02.22,-0.00462637143209577,0,
00:00:02.224,0.000429213396273553,0,
00:00:02.228,0.00358726130798459,0,
00:00:02.232,-0.00103853922337294,0,
00:00:02.236,-0.00363770802505314,0,
00:00:02.24,-0.000712618639227003,0,
00:00:02.244,0.00603096699342132,0,
00:00:02.248,0.00265364092774689,0,
00:00:02.252,-0.00367482984438539,0,
00:00:02.256,-0.00552645325660706,0,
00:00:02.26,0.00295738317072392,0,
00:00:02.264,0.00263276440091431,0,
00:00:02.268,-0.0038941390812397,0,
00:00:02.272,-0.00148090079892427,0,
00:00:02.276,0.00580925028771162,0,
00:00:02.28,0.000854626880027354,0,
00:00:02.284,-0.00129159423522651,0,
00:00:02.288,-0.00363089866004884,0,
00:00:02.292,0.00107239303179085,0,
00:00:02.296,0.00360932946205139,0,
00:00:02.3,-0.00140422838740051,0,
00:00:02.304,-0.00613104365766048,0,
00:00:02.308,0.00516503909602761,0,
00:00:02.312,0.0036918658297509,0,
00:00:02.316,-0.00241119996644557,0,
00:00:02.32,-0.00481426296755672,0,
00:00:02.324,0.000939489575102925,0,
00:00:02.328,0.00426695961505175,0,
00:00:02.332,-0.000590843032114208,0,
00:00:02.336,-0.00354850594885647,0,
00:00:02.34,0.00118595198728144,0,
00:00:02.344,0.00171337043866515,0,
00:00:02.348,0.00277825957164168,0,
00:00:02.352,-0.00229682214558125,0,
00:00:02.356,-0.00448575569316745,0,
00:00:02.36,0.00321719888597727,0,
00:00:02.364,0.00231002597138286,0,
00:00:02.368,-0.00440093269571662,0,
00:00:02.372,-0.00185834965668619,0,
00:00:02.376,0.00360697531141341,0,
00:00:02.38,0.00498776044696569,0,
00:00:02.384,-0.00352824130095541,0,
00:00:02.388,-0.000891987467184663,0,
00:00:02.392,-0.000204343610676005,0,
00:00:02.396,0.00195840420201421,0,
00:00:02.4,-0.0020727226510644,0,
00:00:02.404,-0.00374358519911766,0,
00:00:02.408,0.0018599716713652,0,
00:00:02.412,0.00674939388409257,0,
00:00:02.416,-0.00263533787801862,0,
00:00:02.42,-0.00757775688543916,0,
00:00:02.424,0.00267068226821721,0,
00:00:02.428,0.00609755842015147,0,
00:00:02.432,-8.65137481014244E-05,0,
00:00:02.436,-0.00209277728572488,0,
00:00:02.44,-0.0038597583770752,0,
00:00:02.444,0.00338063482195139,0,
00:00:02.448,0.00202874327078462,0,
00:00:02.452,-0.00481518870219588,0,
00:00:02.456,-6.76196359563619E-05,0,
00:00:02.46,0.00364490039646626,0,
00:00:02.464,-0.000595566409174353,0,
00:00:02.468,-0.00320036173798144,0,
00:00:02.472,0.00155368086416274,0,
00:00:02.476,0.0019036348676309,0,
00:00:02.48,0.00276374258100986,0,
00:00:02.484,-0.00243510329164565,0,
00:00:02.488,-0.00464182486757636,0,
00:00:02.492,0.00103999848943204,0,
00:00:02.496,0.00425876071676612,0,
00:00:02.5,-0.000654683448374271,0,
00:00:02.504,-0.00360824028030038,0,
00:00:02.508,-0.000914257485419512,0,
00:00:02.512,0.00785135850310326,0,
00:00:02.516,-0.00157671305350959,0,
00:00:02.52,-0.00547578698024154,0,
00:00:02.524,2.67796222033212E-05,0,
00:00:02.528,0.00372096640057862,0,
00:00:02.532,-0.00065572583116591,0,
00:00:02.536,-0.00330283958464861,0,
00:00:02.54,0.00150165311060846,0,
00:00:02.544,0.00192871608305722,0,
00:00:02.548,0.00283868191763759,0,
00:00:02.552,-0.00443078624084592,0,
00:00:02.556,-0.00261397892609239,0,
00:00:02.56,0.00477322190999985,0,
00:00:02.564,0.00244808872230351,0,
00:00:02.568,-0.00523843197152019,0,
00:00:02.572,-0.00285714282654226,0,
00:00:02.576,0.00508245406672359,0,
00:00:02.58,0.00294887367635965,0,
00:00:02.584,-0.00486607616767287,0,
00:00:02.588,-0.00274277362041175,0,
00:00:02.592,0.00290626171045005,0,
00:00:02.596,0.00680905114859343,0,
00:00:02.6,-0.0032892725430429,0,
00:00:02.604,-0.00834027770906687,0,
00:00:02.608,0.00222204811871052,0,
00:00:02.612,0.00606345757842064,0,
00:00:02.616,0.00223518675193191,0,
00:00:02.62,-0.00582795171067119,0,
00:00:02.624,-0.00122409139294177,0,
00:00:02.628,0.00294953538104892,0,
00:00:02.632,-0.000709586369339377,0,
00:00:02.636,-0.00292471493594348,0,
00:00:02.64,0.00193651858717203,0,
00:00:02.644,0.002182507654652,0,
00:00:02.648,0.00286057032644749,0,
00:00:02.652,-0.00456291530281305,0,
00:00:02.656,-0.000707851548213512,0,
00:00:02.66,0.000601663487032056,0,
00:00:02.664,0.000665045809000731,0,
00:00:02.668,-0.00177464226726443,0,
00:00:02.672,-0.000144504389027134,0,
00:00:02.676,0.00548942014575005,0,
00:00:02.68,0.00173140224069357,0,
00:00:02.684,-0.00436733989045024,0,
00:00:02.688,-0.00782073941081762,0,
00:00:02.692,0.00511028897017241,0,
00:00:02.696,0.0046206028200686,0,
00:00:02.7,-0.00133984256535769,0,
00:00:02.704,-0.00415057269856334,0,
00:00:02.708,0.00105966930277646,0,
00:00:02.712,0.00400673598051071,0,
00:00:02.716,-0.000967008410952985,0,
00:00:02.72,-0.00383312674239278,0,
00:00:02.724,0.00107631739228964,0,
00:00:02.728,0.00382872554473579,0,
00:00:02.732,0.000912760966457427,0,
00:00:02.736,-0.0059108748100698,0,
00:00:02.74,-0.00263177882879972,0,
00:00:02.744,0.00778143387287855,0,
00:00:02.748,-0.000564714486245066,0,
00:00:02.752,-0.00431467406451702,0,
00:00:02.756,0.000712766428478062,0,
00:00:02.76,0.00171287264674902,0,
00:00:02.764,0.00304582482203841,0,
00:00:02.768,-0.00409295549616218,0,
00:00:02.772,-0.00029270414961502,0,
00:00:02.776,0.000793276587501168,0,
00:00:02.78,0.00271203345619142,0,
00:00:02.784,-0.00182312971446663,0,
00:00:02.788,-0.00391867989674211,0,
00:00:02.792,0.00149991433136165,0,
00:00:02.796,0.00435461383312941,0,
00:00:02.8,-0.000820172426756471,0,
00:00:02.804,-0.00385913555510342,0,
00:00:02.808,0.000966822204645723,0,
00:00:02.812,0.00372142065316439,0,
00:00:02.816,-0.00122084119357169,0,
00:00:02.82,-0.00393861066550016,0,
00:00:02.824,0.00111673411447555,0,
00:00:02.828,0.00394475553184748,0,
00:00:02.832,-0.00104889285285026,0,
00:00:02.836,-0.00386996520683169,0,
00:00:02.84,-0.000980119220912457,0,
00:00:02.844,0.00793139170855284,0,
00:00:02.848,-0.00144434359390289,0,
00:00:02.852,-0.00536911562085152,0,
00:00:02.856,-0.00200299732387066,0,
00:00:02.86,0.00361130782403052,0,
00:00:02.864,0.00707565806806087,0,
00:00:02.868,-0.00547240860760212,0,
00:00:02.872,-0.00454587349668145,0,
00:00:02.876,0.00375221855938435,0,
00:00:02.88,0.00254187174141407,0,
00:00:02.884,-0.00454028835520148,0,
00:00:02.888,-0.00214427756145597,0,
00:00:02.892,0.0033888986799866,0,
00:00:02.896,0.00700388429686427,0,
00:00:02.9,-0.00335370376706123,0,
00:00:02.904,-0.00645649479702115,0,
00:00:02.908,6.09991002420429E-05,0,
00:00:02.912,0.00431852182373405,0,
00:00:02.916,-2.80705717159435E-05,0,
00:00:02.92,-0.00503758806735277,0,
00:00:02.924,0.00348258204758167,0,
00:00:02.928,0.0054423320107162,0,
00:00:02.932,-0.00127981801051646,0,
00:00:02.936,-0.00302957813255489,0,
00:00:02.94,-0.00420047249644995,0,
00:00:02.944,0.00356069603003562,0,
00:00:02.948,0.00244924635626376,0,
00:00:02.952,-0.00442869588732719,0,
00:00:02.956,-0.00194043386727571,0,
00:00:02.96,0.00562944775447249,0,
00:00:02.964,0.00301436916925013,0,
00:00:02.968,-0.0051287179812789,0,
00:00:02.972,-0.00309411901980639,0,
00:00:02.976,0.00472529465332627,0,
00:00:02.98,0.00266500655561686,0,
00:00:02.984,-0.00498960400000215,0,
00:00:02.988,-0.00272123608738184,0,
00:00:02.992,0.00507859326899052,0,
00:00:02.996,0.0028567835688591,0,
00:00:03,-0.00289824954234064,0,
00:00:03.004,-0.00479053426533937,0,
00:00:03.008,-0.000832662684842944,0,
00:00:03.012,0.00862518604844809,0,
00:00:03.016,-0.000771527586039156,0,
00:00:03.02,-0.00710792606696486,0,
00:00:03.024,0.00202260445803404,0,
00:00:03.028,0.0071918061003089,0,
00:00:03.032,-0.000680815486703068,0,
00:00:03.036,-0.0100460220128298,0,
00:00:03.04,0.00056697434047237,0,
00:00:03.044,0.00572960777208209,0,
00:00:03.048,0.00292149581946433,0,
00:00:03.052,-0.00487762223929167,0,
00:00:03.056,-0.00266053155064583,0,
00:00:03.06,0.00506513239815831,0,
00:00:03.064,0.00277124950662255,0,
00:00:03.068,-0.00509169278666377,0,
00:00:03.072,-0.00291722314432263,0,
00:00:03.076,0.00282775843515992,0,
00:00:03.08,0.00681640207767487,0,
00:00:03.084,-0.00531219551339746,0,
00:00:03.088,-0.00423289416357875,0,
00:00:03.092,0.00192279159091413,0,
00:00:03.096,0.0046048779040575,0,
00:00:03.1,-0.000872793316375464,0,
00:00:03.104,-0.00613138498738408,0,
00:00:03.108,0.00277674663811922,0,
00:00:03.112,0.00531238969415426,0,
00:00:03.116,0.00108518882188946,0,
00:00:03.12,-0.00665714545175433,0,
00:00:03.124,-0.00354104652069509,0,
00:00:03.128,0.00723290955647826,0,
00:00:03.132,0.00145552970934659,0,
00:00:03.136,-0.00600666925311089,0,
00:00:03.14,-0.00263186008669436,0,
00:00:03.144,0.00378255918622017,0,
00:00:03.148,0.00562819419428706,0,
00:00:03.152,-0.00293354876339436,0,
00:00:03.156,-0.00268990406766534,0,
00:00:03.16,0.00587439723312855,0,
00:00:03.164,-0.00265537761151791,0,
00:00:03.168,-0.0055223610252142,0,
00:00:03.172,-0.00147076766006649,0,
00:00:03.176,0.00638285418972373,0,
00:00:03.18,0.00558485137298703,0,
00:00:03.184,-0.00696680741384625,0,
00:00:03.188,-0.00691432086750865,0,
00:00:03.192,0.00634897826239467,0,
00:00:03.196,0.00502292811870575,0,
00:00:03.2,0.000330174923874438,0,
00:00:03.204,-0.00892399065196514,0,
00:00:03.208,0.000812371610663831,0,
00:00:03.212,0.00524237705394626,0,
00:00:03.216,0.000140499221743084,0,
00:00:03.22,-0.00340522825717926,0,
00:00:03.224,-0.00116337009239942,0,
00:00:03.228,0.0053840521723032,0,
00:00:03.232,0.00218533608131111,0,
00:00:03.236,-0.00590170361101627,0,
00:00:03.24,-0.00344493007287383,0,
00:00:03.244,0.00688979495316744,0,
00:00:03.248,-0.00105389079544693,0,
00:00:03.252,-0.00431194202974439,0,
00:00:03.256,-0.00104703730903566,0,
00:00:03.26,0.00614084815606475,0,
00:00:03.264,0.0050449026748538,0,
00:00:03.268,-0.00953073799610138,0,
00:00:03.272,-0.001038046204485,0,
00:00:03.276,0.00403549196198583,0,
00:00:03.28,0.00205659260973334,0,
00:00:03.284,-0.00485277222469449,0,
00:00:03.288,-0.00213085627183318,0,
00:00:03.292,0.0035749152302742,0,
00:00:03.296,0.00717960298061371,0,
00:00:03.3,-0.00328471581451595,0,
00:00:03.304,-0.00649503711611032,0,
00:00:03.308,-0.00210779695771635,0,
00:00:03.312,0.00620513735339046,0,
00:00:03.316,0.00364011991769075,0,
00:00:03.32,-0.00476608425378799,0,
00:00:03.324,-0.00303131970576942,0,
00:00:03.328,0.00667562428861856,0,
00:00:03.332,-0.00155739125330001,0,
00:00:03.336,-0.00269898725673556,0,
00:00:03.34,-0.00326510891318321,0,
00:00:03.344,0.00448822742328048,0,
00:00:03.348,0.000845896254759282,0,
00:00:03.352,-0.000429850828368217,0,
00:00:03.356,-0.00264830351807177,0,
00:00:03.36,0.00166511174757034,0,
00:00:03.364,0.00576491374522448,0,
00:00:03.368,-0.00572817400097847,0,
00:00:03.372,-0.0040934793651104,0,
00:00:03.376,0.00230488344095647,0,
00:00:03.38,0.00701954308897257,0,
00:00:03.384,-0.00476959673687816,0,
00:00:03.388,-0.00374980713240802,0,
00:00:03.392,0.00214079162105918,0,
00:00:03.396,0.00455948663875461,0,
00:00:03.4,0.00101503520272672,0,
00:00:03.404,-0.00830114632844925,0,
00:00:03.408,0.0010183589765802,0,
00:00:03.412,0.00511406315490603,0,
00:00:03.416,-0.000104567443486303,0,
00:00:03.42,-0.0035917388740927,0,
00:00:03.424,0.000854200625326484,0,
00:00:03.428,0.00345815275795758,0,
00:00:03.432,0.000638077442999929,0,
00:00:03.436,-0.00807237811386585,0,
00:00:03.44,-0.000586846668738872,0,
00:00:03.444,0.00955782365053892,0,
00:00:03.448,0.00180418987292796,0,
00:00:03.452,-0.00707662617787719,0,
00:00:03.456,-0.00611139694228768,0,
00:00:03.46,0.00897128414362669,0,
00:00:03.464,0.00310020474717021,0,
00:00:03.468,-0.0057195657864213,0,
00:00:03.472,-0.00337425852194428,0,
00:00:03.476,0.00486678024753928,0,
00:00:03.48,0.00299717532470822,0,
00:00:03.484,-0.00471116648986936,0,
00:00:03.488,-0.00469085620716214,0,
00:00:03.492,0.00492404168471694,0,
00:00:03.496,0.00841771997511387,0,
00:00:03.5,-0.00317927892319858,0,
00:00:03.504,-0.00716669298708439,0,
00:00:03.508,-0.000810927769634873,0,
00:00:03.512,0.00379080604761839,0,
00:00:03.516,-8.17942636786029E-05,0,
00:00:03.52,-0.0026886269915849,0,
00:00:03.524,-0.000208080571610481,0,
00:00:03.528,0.00811402872204781,0,
00:00:03.532,0.000380597717594355,0,
00:00:03.536,-0.00982189923524857,0,
00:00:03.54,8.64925605128519E-05,0,
00:00:03.544,0.00504165887832642,0,
00:00:03.548,0.00243284367024899,0,
00:00:03.552,-0.00501698069274426,0,
00:00:03.556,-0.00252100941725075,0,
00:00:03.56,0.00531584629788995,0,
00:00:03.564,0.00298314704559743,0,
00:00:03.568,-0.00499188574030995,0,
00:00:03.572,-0.00500103225931525,0,
00:00:03.576,0.00473559321835637,0,
00:00:03.58,0.00838518235832453,0,
00:00:03.584,-0.00518035562708974,0,
00:00:03.588,-0.00508502684533596,0,
00:00:03.592,0.00298649747855961,0,
00:00:03.596,0.00202245265245438,0,
00:00:03.6,-0.0046542827039957,0,
00:00:03.604,-0.00194925919640809,0,
00:00:03.608,0.00369274290278554,0,
00:00:03.612,0.00724629918113351,0,
00:00:03.616,-0.0032491572201252,0,
00:00:03.62,-0.00855253916233778,0,
00:00:03.624,0.00195192499086261,0,
00:00:03.628,0.00587488990277052,0,
00:00:03.632,0.00217506964690983,0,
00:00:03.636,-0.00578719796612859,0,
00:00:03.64,-0.00321764196269214,0,
00:00:03.644,0.00707180937752128,0,
00:00:03.648,-0.00100872374605387,0,
00:00:03.652,-0.00439189281314611,0,
00:00:03.656,-0.00118150957860053,0,
00:00:03.66,0.00602402025833726,0,
00:00:03.664,0.00290897791273892,0,
00:00:03.668,-0.00548235233873129,0,
00:00:03.672,-0.00341560039669275,0,
00:00:03.676,0.00458367308601737,0,
00:00:03.68,0.00270418915897608,0,
00:00:03.684,-0.00485347863286734,0,
00:00:03.688,-0.00258304108865559,0,
00:00:03.692,0.00308448448777199,0,
00:00:03.696,0.0069220052100718,0,
00:00:03.7,-0.00533860363066196,0,
00:00:03.704,-0.00432461919263005,0,
00:00:03.708,-0.000243417467572726,0,
00:00:03.712,0.00860511511564255,0,
00:00:03.716,0.000863774621393532,0,
00:00:03.72,-0.00954885873943567,0,
00:00:03.724,-0.00193100213073194,0,
00:00:03.728,0.00902266148477793,0,
00:00:03.732,0.00199863500893116,0,
00:00:03.736,-0.00862574856728315,0,
00:00:03.74,0.000494429550599307,0,
00:00:03.744,0.00482058944180608,0,
00:00:03.748,0.00195152580272406,0,
00:00:03.752,-0.00543407164514065,0,
00:00:03.756,-0.00271558226086199,0,
00:00:03.76,0.00741376401856542,0,
00:00:03.764,0.00114856474101543,0,
00:00:03.768,-0.00648372899740934,0,
00:00:03.772,-0.00508667295798659,0,
00:00:03.776,0.00767189776524901,0,
00:00:03.78,0.00740458630025387,0,
00:00:03.784,-0.00624026916921139,0,
00:00:03.788,-0.00521712098270655,0,
00:00:03.792,-0.000637422490399331,0,
00:00:03.796,0.00659700902178884,0,
00:00:03.8,0.00312379491515458,0,
00:00:03.804,-0.00556326238438487,0,
00:00:03.808,-0.00360029959119856,0,
00:00:03.812,0.00444698520004749,0,
00:00:03.816,0.00267278007231653,0,
00:00:03.82,-0.00479992898181081,0,
00:00:03.824,-0.00249812984839082,0,
00:00:03.828,0.00522899255156517,0,
00:00:03.832,0.00290133198723197,0,
00:00:03.836,-0.00501018902286887,0,
00:00:03.84,-0.00288302940316498,0,
00:00:03.844,0.0069794524461031,0,
00:00:03.848,-0.00130186323076487,0,
00:00:03.852,-0.00466275960206985,0,
00:00:03.856,-0.00131277751643211,0,
00:00:03.86,0.00811258796602488,0,
00:00:03.864,-0.00104749924503267,0,
00:00:03.868,-0.00504583632573485,0,
00:00:03.872,-0.00188611506018788,0,
00:00:03.876,0.00354196364060044,0,
00:00:03.88,0.00691903242841363,0,
00:00:03.884,-0.00561663974076509,0,
00:00:03.888,-0.00462249340489507,0,
00:00:03.892,0.0037474948912859,0,
00:00:03.896,0.00050530512817204,0,
00:00:03.9,-0.00044111895840615,0,
00:00:03.904,-0.0024449264165014,0,
00:00:03.908,0.00193350948393345,0,
00:00:03.912,0.00597615446895361,0,
00:00:03.916,-0.0056291869841516,0,
00:00:03.92,-0.00409655040130019,0,
00:00:03.924,0.00224622013047338,0,
00:00:03.928,0.00487888883799315,0,
00:00:03.932,0.00131700548809022,0,
00:00:03.936,-0.00606693141162395,0,
00:00:03.94,-0.00302833970636129,0,
00:00:03.944,0.0053587737493217,0,
00:00:03.948,0.00333088473416865,0,
00:00:03.952,-0.00461734225973487,0,
00:00:03.956,-0.00269810389727354,0,
00:00:03.96,0.00487794307991862,0,
00:00:03.964,0.00260675745084882,0,
00:00:03.968,-0.00514754746109247,0,
00:00:03.972,-0.00287019275128841,0,
00:00:03.976,0.0029229111969471,0,
00:00:03.98,0.00690265046432614,0,
00:00:03.984,-0.00526662264019251,0,
00:00:03.988,-0.00423013558611274,0,
00:00:03.992,0.00189946161117405,0,
00:00:03.996,0.00665208837017417,0,
00:00:04,-0.00286751077510417,0,
00:00:04.004,-0.0057033752091229,0,
00:00:04.008,-0.00144668691791594,0,
00:00:04.012,0.00857296213507652,0,
00:00:04.016,-0.000465892517240718,0,
00:00:04.02,-0.00467013334855437,0,
00:00:04.024,0.00026590601191856,0,
00:00:04.028,0.00350107927806675,0,
00:00:04.032,-0.00106245896313339,0,
00:00:04.036,-0.00364999193698168,0,
00:00:04.04,-0.000739653420168906,0,
00:00:04.044,0.00599084561690688,0,
00:00:04.048,0.0026147875469178,0,
00:00:04.052,-0.007851617410779,0,
00:00:04.056,-0.00158375781029463,0,
00:00:04.06,0.00624653231352568,0,
00:00:04.064,0.00507301092147827,0,
00:00:04.068,-0.00754587259143591,0,
00:00:04.072,-0.00724956067278981,0,
00:00:04.076,0.00634625647217035,0,
00:00:04.08,0.00732488697394729,0,
00:00:04.084,-0.00551444292068481,0,
00:00:04.088,-0.00433597853407264,0,
00:00:04.092,0.00201867171563208,0,
00:00:04.096,0.00684171309694648,0,
00:00:04.1,-0.00482460670173168,0,
00:00:04.104,-0.00372697692364454,0,
00:00:04.108,0.0021874220110476,0,
00:00:04.112,0.00459332996979356,0,
00:00:04.116,-0.00105219660326838,0,
00:00:04.12,-0.00426138658076525,0,
00:00:04.124,0.000666441395878792,0,
00:00:04.128,0.00363400322385132,0,
00:00:04.132,0.00094492599600926,0,
00:00:04.136,-0.00782644096761942,0,
00:00:04.14,-0.00048590189544484,0,
00:00:04.144,0.0095285689458251,0,
00:00:04.148,0.00171037064865232,0,
00:00:04.152,-0.00924410577863455,0,
00:00:04.156,-0.00211151852272451,0,
00:00:04.16,0.00655663199722767,0,
00:00:04.164,0.00363401579670608,0,
00:00:04.168,-0.00299109751358628,0,
00:00:04.172,-0.0053360303863883,0,
00:00:04.176,0.000710239924956113,0,
00:00:04.18,0.00638801325112581,0,
00:00:04.184,-0.00445886980742216,0,
00:00:04.188,-0.00511004636064172,0,
00:00:04.192,0.00680116238072515,0,
00:00:04.196,0.00655842153355479,0,
00:00:04.2,-0.00665476405993104,0,
00:00:04.204,-0.00726171676069498,0,
00:00:04.208,0.0036935550160706,0,
00:00:04.212,0.00864247512072325,0,
00:00:04.216,-0.00220820819959044,0,
00:00:04.22,-0.00621575675904751,0,
00:00:04.224,-0.00238943053409457,0,
00:00:04.228,0.00576353725045919,0,
00:00:04.232,0.00333102163858712,0,
00:00:04.236,-0.00691882381215692,0,
00:00:04.24,0.00112299178726971,0,
00:00:04.244,0.00443602027371526,0,
00:00:04.248,-0.000909564550966024,0,
00:00:04.252,-0.00201625726185739,0,
00:00:04.256,-0.00328338472172618,0,
00:00:04.26,0.0019193667685613,0,
00:00:04.264,0.00436952477321029,0,
00:00:04.268,-0.00103965948801488,0,
00:00:04.272,-0.00409165397286415,0,
00:00:04.276,0.000851214106660336,0,
00:00:04.28,0.00581493973731995,0,
00:00:04.284,-0.00517571158707142,0,
00:00:04.288,-0.00350071932189167,0,
00:00:04.292,0.00264788931235671,0,
00:00:04.296,0.00705609889701009,0,
00:00:04.3,-0.00493540847674012,0,
00:00:04.304,-0.00396645721048117,0,
00:00:04.308,0.00198583258315921,0,
00:00:04.312,0.00450654048472643,0,
00:00:04.316,0.00104430038481951,0,
00:00:04.32,-0.00823640171438456,0,
00:00:04.324,-0.000999720650725067,0,
00:00:04.328,0.00711820321157575,0,
00:00:04.332,0.00361281889490783,0,
00:00:04.336,-0.00540737202391028,0,
00:00:04.34,-0.00165036064572632,0,
00:00:04.344,0.000164994009537622,0,
00:00:04.348,0.00282246083952487,0,
00:00:04.352,-0.00340475048869848,0,
00:00:04.356,0.000628456007689238,0,
00:00:04.36,0.00351748755201697,0,
00:00:04.364,0.000936265802010894,0,
00:00:04.368,-0.00569632742553949,0,
00:00:04.372,-0.00449592247605324,0,
00:00:04.376,0.00777871673926711,0,
00:00:04.38,0.00510362768545747,0,
00:00:04.384,-0.00248861755244434,0,
00:00:04.388,-0.00574327493086457,0,
00:00:04.392,-6.04595879849512E-05,0,
00:00:04.396,0.00368323340080678,0,
00:00:04.4,-0.000661554688122123,0,
00:00:04.404,-0.00327831995673478,0,
00:00:04.408,-0.000531201483681798,0,
00:00:04.412,0.00809877458959818,0,
00:00:04.416,-0.00151636474765837,0,
00:00:04.42,-0.00762736471369863,0,
00:00:04.424,0.00187883770558983,0,
00:00:04.428,0.00526475720107555,0,
00:00:04.432,0.00155560614075512,0,
00:00:04.436,-0.00611138436943293,0,
00:00:04.44,-0.00320855272002518,0,
00:00:04.444,0.00520737934857607,0,
00:00:04.448,0.00328648113645613,0,
00:00:04.452,-0.00456461403518915,0,
00:00:04.456,-0.00260304054245353,0,
00:00:04.46,0.00703652948141098,0,
00:00:04.464,-0.00140270835254341,0,
00:00:04.468,-0.00273827207274735,0,
00:00:04.472,-0.00548026245087385,0,
00:00:04.476,0.00632391823455691,0,
00:00:04.48,0.004483288154006,0,
00:00:04.484,-0.002239597029984,0,
00:00:04.488,-0.00717510376125574,0,
00:00:04.492,0.00455725705251098,0,
00:00:04.496,0.00360111403279006,0,
00:00:04.5,-0.0021846042945981,0,
00:00:04.504,-0.00452102953568101,0,
00:00:04.508,-0.00094394909683615,0,
00:00:04.512,0.00836122874170542,0,
00:00:04.516,0.00108542724046856,0,
00:00:04.52,-0.00916790030896664,0,
00:00:04.524,-0.00165746523998678,0,
00:00:04.528,0.00908687338232994,0,
00:00:04.532,-0.000180518953129649,0,
00:00:04.536,-0.00474080070853233,0,
00:00:04.54,-0.00205036532133818,0,
00:00:04.544,0.00734532997012138,0,
00:00:04.548,0.000606390181928873,0,
00:00:04.552,-0.00911485403776169,0,
00:00:04.556,-0.00131570920348167,0,
00:00:04.56,0.00944818276911974,0,
00:00:04.564,0.00211050850339234,0,
00:00:04.568,-0.00668024690821767,0,
00:00:04.572,-0.00585343921557069,0,
00:00:04.576,0.0048721912316978,0,
00:00:04.58,0.00902880728244781,0,
00:00:04.584,-0.00248239375650883,0,
00:00:04.588,-0.00882794987410307,0,
00:00:04.592,0.00121495616622269,0,
00:00:04.596,0.00731353834271431,0,
00:00:04.6,-0.00214025122113526,0,
00:00:04.604,-0.0053620501421392,0,
00:00:04.608,-0.00147929380182177,0,
00:00:04.612,0.00835946016013622,0,
00:00:04.616,-0.000671874673571438,0,
00:00:04.62,-0.00684507936239243,0,
00:00:04.624,0.00225471332669258,0,
00:00:04.628,0.00522033218294382,0,
00:00:04.632,-0.000802567403297871,0,
00:00:04.636,-0.0044416063465178,0,
00:00:04.64,0.000319248123560101,0,
00:00:04.644,0.00336749549023807,0,
00:00:04.648,0.000864586385432631,0,
00:00:04.652,-0.00567230442538857,0,
00:00:04.656,-0.00231555895879865,0,
00:00:04.66,0.00593704311177135,0,
00:00:04.664,0.00357096595689654,0,
00:00:04.668,-0.00468486594036222,0,
00:00:04.672,-0.00499577540904284,0,
00:00:04.676,0.0066348104737699,0,
00:00:04.68,0.00412554712966084,0,
00:00:04.684,-0.00290957768447697,0,
00:00:04.688,-0.00563337001949549,0,
00:00:04.692,0.000325328612234443,0,
00:00:04.696,0.00614625681191683,0,
00:00:04.7,-0.00241276226006448,0,
00:00:04.704,-0.00696290284395218,0,
00:00:04.708,0.00325037352740765,0,
00:00:04.712,0.00640613958239555,0,
00:00:04.716,0.00200547301210463,0,
00:00:04.72,-0.00838219374418259,0,
00:00:04.724,0.000326953246258199,0,
00:00:04.728,0.00437885196879506,0,
00:00:04.732,0.00154479464981705,0,
00:00:04.736,-0.00561674311757088,0,
00:00:04.74,-0.000588454073294997,0,
00:00:04.744,0.0035442104563117,0,
00:00:04.748,0.00166978477500379,0,
00:00:04.752,-0.00697967084124684,0,
00:00:04.756,8.57100712892134E-06,0,
00:00:04.76,0.00748507818207145,0,
00:00:04.764,0.00548399845138192,0,
00:00:04.768,-0.00785406120121479,0,
00:00:04.772,-0.00787839386612177,0,
00:00:04.776,0.0057842549867928,0,
00:00:04.78,0.00496082380414009,0,
00:00:04.784,-0.00147021398879588,0,
00:00:04.788,-0.00658508855849504,0,
00:00:04.792,0.0047935089096427,0,
00:00:04.796,0.00353748328052461,0,
00:00:04.8,-0.00238973135128617,0,
00:00:04.804,-0.00471685826778412,0,
00:00:04.808,-0.00104817957617342,0,
00:00:04.812,0.00835627689957619,0,
00:00:04.816,-0.000934739131480455,0,
00:00:04.82,-0.00297374511137605,0,
00:00:04.824,-0.00392084522172809,0,
00:00:04.828,0.00391694437712431,0,
00:00:04.832,0.00266221561469138,0,
00:00:04.836,-0.00443714438006282,0,
00:00:04.84,-0.00210806168615818,0,
00:00:04.844,0.00542136467993259,0,
00:00:04.848,0.00493799243122339,0,
00:00:04.852,-0.00716251833364367,0,
00:00:04.856,-0.00471644802019,0,
00:00:04.86,0.00460469024255872,0,
00:00:04.864,0.00356131140142679,0,
00:00:04.868,-0.00393305253237486,0,
00:00:04.872,-0.00208853860385716,0,
00:00:04.876,0.00514585198834538,0,
00:00:04.88,0.00253792433068156,0,
00:00:04.884,-0.00539513397961855,0,
00:00:04.888,-0.0031212184112519,0,
00:00:04.892,0.00277557736262679,0,
00:00:04.896,0.00687853014096618,0,
00:00:04.9,-0.00313270324841142,0,
00:00:04.904,-0.00612416584044695,0,
00:00:04.908,-0.00175839511211962,0,
00:00:04.912,0.0063963714055717,0,
00:00:04.916,0.00365848699584603,0,
00:00:04.92,-0.00693190423771739,0,
00:00:04.924,0.00090513686882332,0,
00:00:04.928,0.00418674852699041,0,
00:00:04.932,0.00100349495187402,0,
00:00:04.936,-0.00818608608096838,0,
00:00:04.94,-0.000929411267861724,0,
00:00:04.944,0.00717973709106445,0,
00:00:04.948,0.00365411164239049,0,
00:00:04.952,-0.00538773275911808,0,
00:00:04.956,-0.00372307631187141,0,
00:00:04.96,0.00421040877699852,0,
00:00:04.964,0.00248181587085128,0,
00:00:04.968,-0.00487455585971475,0,
00:00:04.972,-0.00246821902692318,0,
00:00:04.976,0.00530944252386689,0,
00:00:04.98,0.00297779147513211,0,
00:00:04.984,-0.00289273099042475,0,
00:00:04.988,-0.00485479226335883,0,
00:00:04.992,0.00116561003960669,0,
00:00:04.996,0.00452205166220665,0,
00:00:05,-0.000453083572210744,0,
00:00:05.004,-0.00562966195866466,0,
00:00:05.008,0.00306635745801032,0,
00:00:05.012,0.00739664491266012,0,
00:00:05.016,-0.00106887298170477,0,
00:00:05.02,-0.00852039083838463,0,
00:00:05.024,-0.00387350120581687,0,
00:00:05.028,0.00802373047918081,0,
00:00:05.032,0.000437743816291913,0,
00:00:05.036,-0.00541123235598207,0,
00:00:05.04,0.0032007023692131,0,
00:00:05.044,0.00542967114597559,0,
00:00:05.048,0.000935496354941279,0,
00:00:05.052,-0.00694289244711399,0,
00:00:05.056,-0.00381472939625382,0,
00:00:05.06,0.00291445502080023,0,
00:00:05.064,0.00744028575718403,0,
00:00:05.068,-0.0046523897908628,0,
00:00:05.072,-0.00592017220333219,0,
00:00:05.076,0.00603121472522616,0,
00:00:05.08,0.00618336070328951,0,
00:00:05.084,-0.00661335000768304,0,
00:00:05.088,-0.00490608252584934,0,
00:00:05.092,0.00202313298359513,0,
00:00:05.096,0.00511556956917048,0,
00:00:05.1,-0.000366895110346377,0,
00:00:05.104,-0.00586853269487619,0,
00:00:05.108,0.00276978779584169,0,
00:00:05.112,0.00721838464960456,0,
00:00:05.116,-0.00316183432005346,0,
00:00:05.12,-0.00645253900438547,0,
00:00:05.124,-0.00211070151999593,0,
00:00:05.128,0.00413617584854364,0,
00:00:05.132,0.00772761041298509,0,
00:00:05.136,-0.00504525378346443,0,
00:00:05.14,-0.00652256794273853,0,
00:00:05.144,0.00766055891290307,0,
00:00:05.148,0.00198203767649829,0,
00:00:05.152,-0.00826092809438705,0,
00:00:05.156,-0.00126462907064706,0,
00:00:05.16,0.00693913828581572,0,
00:00:05.164,0.00359125551767647,0,
00:00:05.168,-0.00532578816637397,0,
00:00:05.172,-0.00362453470006585,0,
00:00:05.176,0.00220489408820868,0,
00:00:05.18,0.00655210111290216,0,
00:00:05.184,-0.00522900838404894,0,
00:00:05.188,-0.0039699231274426,0,
00:00:05.192,0.00218346691690385,0,
00:00:05.196,0.00683018006384373,0,
00:00:05.2,-0.00282713887281716,0,
00:00:05.204,-0.00783651135861874,0,
00:00:05.208,0.000438738614320755,0,
00:00:05.212,0.0101446360349655,0,
00:00:05.216,-0.000317620899295434,0,
00:00:05.22,-0.00550497602671385,0,
00:00:05.224,-0.00281157926656306,0,
00:00:05.228,0.00694694928824902,0,
00:00:05.232,-0.00146330625284463,0,
00:00:05.236,-0.00481253489851952,0,
00:00:05.24,-0.00135707354638726,0,
00:00:05.244,0.00609988672658801,0,
00:00:05.248,0.00311846588738263,0,
00:00:05.252,-0.00527494540438056,0,
00:00:05.256,-0.00329410191625357,0,
00:00:05.26,0.00460447231307626,0,
00:00:05.264,0.0026577184908092,0,
00:00:05.268,-0.00491922348737717,0,
00:00:05.272,-0.00263184774667025,0,
00:00:05.276,0.00514227710664272,0,
00:00:05.28,0.00287862727418542,0,
00:00:05.284,-0.0029101234395057,0,
00:00:05.288,-0.00689281011000276,0,
00:00:05.292,0.00527052022516727,0,
00:00:05.296,0.00422889087349176,0,
00:00:05.3,0.000172606116393581,0,
00:00:05.304,-0.00863096956163645,0,
00:00:05.308,-0.000852250959724188,0,
00:00:05.312,0.00957728084176779,0,
00:00:05.316,-0.000118686250061728,0,
00:00:05.32,-0.00703381979838014,0,
00:00:05.324,-0.000356233620550483,0,
00:00:05.328,0.00879529397934675,0,
00:00:05.332,0.000729749794118106,0,
00:00:05.336,-0.00782940536737442,0,
00:00:05.34,-0.00422571878880262,0,
00:00:05.344,0.00517696142196655,0,
00:00:05.348,0.00386207643896341,0,
00:00:05.352,-0.00389918591827154,0,
00:00:05.356,-0.00218996265903115,0,
00:00:05.36,0.00295991357415915,0,
00:00:05.364,0.00653707468882203,0,
00:00:05.368,-0.00571576273068786,0,
00:00:05.372,-0.00453746039420366,0,
00:00:05.376,0.00180624483618885,0,
00:00:05.38,0.00672388449311256,0,
00:00:05.384,-0.00480585917830467,0,
00:00:05.388,-0.00361123913899064,0,
00:00:05.392,0.00232574786059558,0,
00:00:05.396,0.00676947692409158,0,
00:00:05.4,-0.000912825402338058,0,
00:00:05.404,-0.0120424656197429,0,
00:00:05.408,0.00276175676845014,0,
00:00:05.412,0.00962493009865284,0,
00:00:05.416,-0.000900551909580827,0,
00:00:05.42,-0.00544617511332035,0,
00:00:05.424,-0.00233003427274525,0,
00:00:05.428,0.00743737211450934,0,
00:00:05.432,-0.00122286006808281,0,
00:00:05.436,-0.00485422275960445,0,
00:00:05.44,-0.00156500143930316,0,
00:00:05.444,0.00587430456653237,0,
00:00:05.448,0.00297506246715784,0,
00:00:05.452,-0.00531041994690895,0,
00:00:05.456,-0.00325177377089858,0,
00:00:05.46,0.00259823398664594,0,
00:00:05.464,0.00676443707197905,0,
00:00:05.468,-0.00315308966673911,0,
00:00:05.472,-0.00815313868224621,0,
00:00:05.476,0.00443599559366703,0,
00:00:05.48,0.00413891719654202,0,
00:00:05.484,-0.00358037743717432,0,
00:00:05.488,-0.00210939487442374,0,
00:00:05.492,0.00285195419564843,0,
00:00:05.496,0.00430475594475865,0,
00:00:05.5,0.0003103640046902,0,
00:00:05.504,-0.00893500074744225,0,
00:00:05.508,-0.00135090935509652,0,
00:00:05.512,0.011289369314909,0,
00:00:05.516,-0.00425237696617842,0,
00:00:05.52,-0.00239844713360071,0,
00:00:05.524,-0.00467609567567706,0,
00:00:05.528,0.00663135200738907,0,
00:00:05.532,0.00219729030504823,0,
00:00:05.536,-0.000676646595820785,0,
00:00:05.54,-0.00170437048655003,0,
00:00:05.544,-0.0013989593135193,0,
00:00:05.548,0.00153046799823642,0,
00:00:05.552,-0.00591178052127361,0,
00:00:05.556,0.00495917536318302,0,
00:00:05.56,0.00374627858400345,0,
00:00:05.564,-5.96867394051515E-05,0,
00:00:05.568,-0.00651493994519114,0,
00:00:05.572,-0.00472969049587846,0,
00:00:05.576,0.00592239620164037,0,
00:00:05.58,0.0116012329235673,0,
00:00:05.584,-0.00451714405789971,0,
00:00:05.588,-0.0108326924964786,0,
00:00:05.592,0.000654721690807492,0,
00:00:05.596,0.00170011480804533,0,
00:00:05.6,0.00892599765211344,0,
00:00:05.604,-0.00366634014062583,0,
00:00:05.608,-0.00402384530752897,0,
00:00:05.612,0.00527037447318435,0,
00:00:05.616,0.00170811684802175,0,
00:00:05.62,-0.0130251944065094,0,
00:00:05.624,0.00181202567182481,0,
00:00:05.628,0.00966183468699455,0,
00:00:05.632,-0.000189807993592694,0,
00:00:05.636,-0.00467196386307478,0,
00:00:05.64,-0.0018992442637682,0,
00:00:05.644,0.00121778366155922,0,
00:00:05.648,0.00651352573186159,0,
00:00:05.652,0.00192541966680437,0,
00:00:05.656,-0.00477378210052848,0,
00:00:05.66,-0.00423715775832534,0,
00:00:05.664,-0.0013140490045771,0,
00:00:05.668,0.00112350611016154,0,
00:00:05.672,-0.00211668573319912,0,
00:00:05.676,0.0118067413568497,0,
00:00:05.68,-0.0020012364257127,0,
00:00:05.684,-0.00896691530942917,0,
00:00:05.688,-0.00101358199026436,0,
00:00:05.692,0.0113183530047536,0,
00:00:05.696,-0.00453486945480108,0,
00:00:05.7,-0.000686564308125526,0,
00:00:05.704,-0.00897405482828617,0,
00:00:05.708,0.00482856342568994,0,
00:00:05.712,0.00572125054895878,0,
00:00:05.716,0.0062738498672843,0,
00:00:05.72,-0.00933246407657862,0,
00:00:05.724,-0.0039973733946681,0,
00:00:05.728,0.00485261296853423,0,
00:00:05.732,0.00502257468178868,0,
00:00:05.736,-0.0088511761277914,0,
00:00:05.74,-0.00230015581473708,0,
00:00:05.744,0.0065780901350081,0,
00:00:05.748,0.00182091107126325,0,
00:00:05.752,-0.00279235281050205,0,
00:00:05.756,-0.00154794240370393,0,
00:00:05.76,0.00460644438862801,0,
00:00:05.764,0.00155904900748283,0,
00:00:05.768,-0.00613400898873806,0,
00:00:05.772,-0.00332508748397231,0,
00:00:05.776,0.00509972078725696,0,
00:00:05.78,0.00326243042945862,0,
00:00:05.784,-0.00450379773974419,0,
00:00:05.788,-0.00457883952185512,0,
00:00:05.792,0.00910000037401915,0,
00:00:05.796,0.00236228597350419,0,
00:00:05.8,-0.00453206012025476,0,
00:00:05.804,-0.0100626852363348,0,
00:00:05.808,0.004991021938622,0,
00:00:05.812,0.014520863071084,0,
00:00:05.816,-0.00540661253035069,0,
00:00:05.82,-0.0118311606347561,0,
00:00:05.824,-0.00357258575968444,0,
00:00:05.828,0.0124814892187715,0,
00:00:05.832,0.00699549121782184,0,
00:00:05.836,-0.0119718788191676,0,
00:00:05.84,-0.00226151570677757,0,
00:00:05.844,0.00671667978167534,0,
00:00:05.848,0.00348363281227648,0,
00:00:05.852,-0.00750364502891898,0,
00:00:05.856,0.000372903334209695,0,
00:00:05.86,0.0060463366098702,0,
00:00:05.864,-0.00293452176265419,0,
00:00:05.868,-0.00548835704103112,0,
00:00:05.872,-0.00115577131509781,0,
00:00:05.876,0.00464862864464521,0,
00:00:05.88,0.00774302100762725,0,
00:00:05.884,-0.00533730397000909,0,
00:00:05.888,-0.0047981864772737,0,
00:00:05.892,0.00129634409677237,0,
00:00:05.896,0.00214536930434406,0,
00:00:05.9,-0.00104449735954404,0,
00:00:05.904,-0.000293153978418559,0,
00:00:05.908,0.00698272511363029,0,
00:00:05.912,0.00336464587599039,0,
00:00:05.916,-0.0122877350077033,0,
00:00:05.92,-0.00925868656486273,0,
00:00:05.924,0.0033032912760973,0,
00:00:05.928,0.00960992835462093,0,
00:00:05.932,0.0100504448637366,0,
00:00:05.936,-0.00576300965622067,0,
00:00:05.94,-0.00662523368373513,0,
00:00:05.944,0.00364156160503626,0,
00:00:05.948,-0.00485306140035391,0,
00:00:05.952,-0.00239091459661722,0,
00:00:05.956,0.00361092109233141,0,
00:00:05.96,0.00337183242663741,0,
00:00:05.964,0.00525194918736815,0,
00:00:05.968,-0.00684241997078061,0,
00:00:05.972,-0.00491993641480803,0,
00:00:05.976,-3.77114047296345E-05,0,
00:00:05.98,0.00916619691997766,0,
00:00:05.984,-0.00278511131182313,0,
00:00:05.988,-0.00536258611828089,0,
00:00:05.992,0.00547340931370854,0,
00:00:05.996,0.00317178573459387,0,
00:00:06,-0.00118559424299747,0,
00:00:06.004,-0.00743311131373048,0,
00:00:06.008,-0.00297822849825025,0,
00:00:06.012,0.00624429108574986,0,
00:00:06.016,0.00431306986138225,0,
00:00:06.02,-0.00816882401704788,0,
00:00:06.024,0.0075863697566092,0,
00:00:06.028,-7.49076134525239E-05,0,
00:00:06.032,-0.0024034520611167,0,
00:00:06.036,-0.00400103908032179,0,
00:00:06.04,-0.000675094546750188,0,
00:00:06.044,0.00619128393009305,0,
00:00:06.048,0.00488414941355586,0,
00:00:06.052,-0.00762705225497484,0,
00:00:06.056,-0.0051551079377532,0,
00:00:06.06,0.000266640476183966,0,
00:00:06.064,0.0075814900919795,0,
00:00:06.068,0.00370644475333393,0,
00:00:06.072,-0.00755953881889582,0,
00:00:06.076,0.000191790662938729,0,
00:00:06.08,0.00376296928152442,0,
00:00:06.084,-0.00112392299342901,0,
00:00:06.088,-0.00393575150519609,0,
00:00:06.092,0.00107865396421403,0,
00:00:06.096,0.00393184833228588,0,
00:00:06.1,0.00106005812995136,0,
00:00:06.104,-0.00578373996540904,0,
00:00:06.108,-0.000486486445879564,0,
00:00:06.112,0.00166445679496974,0,
00:00:06.116,0.00171622994821519,0,
00:00:06.12,-0.00124487548600882,0,
00:00:06.124,0.00188281398732215,0,
00:00:06.128,0.00312165101058781,0,
00:00:06.132,0.00172659999225289,0,
00:00:06.136,-0.0109544387087226,0,
00:00:06.14,-0.00474245147779584,0,
00:00:06.144,0.0114012155681849,0,
00:00:06.148,0.00253242207691073,0,
00:00:06.152,-0.00147315219510347,0,
00:00:06.156,-0.00436385907232761,0,
00:00:06.16,-0.00159396859817207,0,
00:00:06.164,0.00743765197694302,0,
00:00:06.168,-0.00165571400430053,0,
00:00:06.172,-0.00738376751542091,0,
00:00:06.176,0.00225712987594306,0,
00:00:06.18,0.00972057972103357,0,
00:00:06.184,-0.00641113286837935,0,
00:00:06.188,-0.00546380924060941,0,
00:00:06.192,-0.000378676515538245,0,
00:00:06.196,0.0092184878885746,0,
00:00:06.2,-0.000456575478892773,0,
00:00:06.204,-0.00503585999831557,0,
00:00:06.208,-0.000135957569000311,0,
00:00:06.212,0.00119800015818328,0,
00:00:06.216,0.00297580612823367,0,
00:00:06.22,-0.00385720632039011,0,
00:00:06.224,0.00210384675301611,0,
00:00:06.228,0.00112961337435991,0,
00:00:06.232,-0.00289504951797426,0,
00:00:06.236,-0.00585665786638856,0,
00:00:06.24,0.00432103127241135,0,
00:00:06.244,0.00684503698721528,0,
00:00:06.248,0.00186166493222117,0,
00:00:06.252,-0.006717290263623,0,
00:00:06.256,-0.00409849733114243,0,
00:00:06.26,0.00453174998983741,0,
00:00:06.264,0.0009514459525235,0,
00:00:06.268,-0.000416746537666768,0,
00:00:06.272,-0.00474784523248672,0,
00:00:06.276,0.00364448013715446,0,
00:00:06.28,0.00745536340400577,0,
00:00:06.284,-0.00547974929213524,0,
00:00:06.288,-0.00487284734845161,0,
00:00:06.292,0.00338869611732662,0,
00:00:06.296,0.00234370585530996,0,
00:00:06.3,-0.00245577050372958,0,
00:00:06.304,-0.00605388078838587,0,
00:00:06.308,0.00388874718919396,0,
00:00:06.312,0.00858240853995085,0,
00:00:06.316,-0.000222837785258889,0,
00:00:06.32,-0.0103477472439408,0,
00:00:06.324,-0.00420380709692836,0,
00:00:06.328,0.011218560859561,0,
00:00:06.332,0.0060491687618196,0,
00:00:06.336,-0.00812194775789976,0,
00:00:06.34,-0.00599213829264045,0,
00:00:06.344,0.00386468530632555,0,
00:00:06.348,0.0014222408644855,0,
00:00:06.352,-0.00159625627566129,0,
00:00:06.356,0.00207526725716889,0,
00:00:06.36,-0.000508277153130621,0,
00:00:06.364,0.00823085382580757,0,
00:00:06.368,-0.00735499383881688,0,
00:00:06.372,-0.00598701229318976,0,
00:00:06.376,0.00156229746062309,0,
00:00:06.38,0.00738830957561731,0,
00:00:06.384,-0.00391388777643442,0,
00:00:06.388,-0.00508363405242562,0,
00:00:06.392,0.00859777722507715,0,
00:00:06.396,0.000105749204521999,0,
00:00:06.4,-0.00039888359606266,0,
00:00:06.404,-0.00814563687890768,0,
00:00:06.408,0.00168177729938179,0,
00:00:06.412,0.00566675467416644,0,
00:00:06.416,0.00218933145515621,0,
00:00:06.42,-0.00771537935361266,0,
00:00:06.424,0.00305803376249969,0,
00:00:06.428,-0.00139262434095144,0,
00:00:06.432,0.0038720176089555,0,
00:00:06.436,-0.00270120799541473,0,
00:00:06.44,-0.00170221726875752,0,
00:00:06.444,0.00470123672857881,0,
00:00:06.448,0.00183858629316092,0,
00:00:06.452,-0.00379292597062886,0,
00:00:06.456,-0.00932888779789209,0,
00:00:06.46,0.00737805059179664,0,
00:00:06.464,0.0104031125083566,0,
00:00:06.468,-0.00945784524083138,0,
00:00:06.472,-0.00247147167101502,0,
00:00:06.476,0.00084302038885653,0,
00:00:06.48,0.0058117937296629,0,
00:00:06.484,-0.0048666363582015,0,
00:00:06.488,-0.00308157480321825,0,
00:00:06.492,0.000860049738548696,0,
00:00:06.496,0.00701573025435209,0,
00:00:06.5,0.00686509441584349,0,
00:00:06.504,-0.0143865654245019,0,
00:00:06.508,-0.00352478702552617,0,
00:00:06.512,0.00711826467886567,0,
00:00:06.516,0.0047607347369194,0,
00:00:06.52,-0.00422195438295603,0,
00:00:06.524,-0.00515538221225142,0,
00:00:06.528,0.0062306672334671,0,
00:00:06.532,0.00379719538614154,0,
00:00:06.536,-0.00302366656251252,0,
00:00:06.54,-0.00763329584151506,0,
00:00:06.544,0.00453823991119862,0,
00:00:06.548,0.00388290849514306,0,
00:00:06.552,-0.00390339316800237,0,
00:00:06.556,-0.00228799832984805,0,
00:00:06.56,0.00494303414598107,0,
00:00:06.564,0.00247069424949586,0,
00:00:06.568,-0.00531927216798067,0,
00:00:06.572,-0.00505020748823881,0,
00:00:06.576,0.00903752818703651,0,
00:00:06.58,0.0046444539912045,0,
00:00:06.584,-0.00830677337944508,0,
00:00:06.588,-0.0074544046074152,0,
00:00:06.592,0.00662523088976741,0,
00:00:06.596,0.00565890967845917,0,
00:00:06.6,-0.00119779712986201,0,
00:00:06.604,-0.00671061314642429,0,
00:00:06.608,0.00239434093236923,0,
00:00:06.612,0.00520279491320252,0,
00:00:06.616,0.00115459028165787,0,
00:00:06.62,-0.00861185044050217,0,
00:00:06.624,0.000594847195316106,0,
00:00:06.628,0.00691905571147799,0,
00:00:06.632,-4.02557634515688E-05,0,
00:00:06.636,-0.00707487156614661,0,
00:00:06.64,-0.00493101263418794,0,
00:00:06.644,0.0102902520447969,0,
00:00:06.648,0.00387220829725266,0,
00:00:06.652,-0.00564410537481308,0,
00:00:06.656,-0.00376497092656791,0,
00:00:06.66,0.00228204834274948,0,
00:00:06.664,0.00668273726478219,0,
00:00:06.668,-0.00724726263433695,0,
00:00:06.672,-0.0061900676228106,0,
00:00:06.676,0.0138996616005898,0,
00:00:06.68,0.00633710063993931,0,
00:00:06.684,-0.0144325662404299,0,
00:00:06.688,-0.00671083480119705,0,
00:00:06.692,0.00558443879708648,0,
00:00:06.696,0.00336884497664869,0,
00:00:06.7,0.00364394998177886,0,
00:00:06.704,-0.00594194559380412,0,
00:00:06.708,-0.00245181075297296,0,
00:00:06.712,0.012480634264648,0,
00:00:06.716,-0.00203321361914277,0,
00:00:06.72,-0.00752963591367006,0,
00:00:06.724,-0.00159072002861649,0,
00:00:06.728,0.00322366645559669,0,
00:00:06.732,-0.000242205715039745,0,
00:00:06.736,-0.00253501161932945,0,
00:00:06.74,6.095900607761E-05,0,
00:00:06.744,0.00625559035688639,0,
00:00:06.748,0.00244692619889975,0,
00:00:06.752,-0.00405189674347639,0,
00:00:06.756,-0.00792000256478786,0,
00:00:06.76,0.00478494493290782,0,
00:00:06.764,0.00636536628007889,0,
00:00:06.768,-0.00766476988792419,0,
00:00:06.772,-0.00187947333324701,0,
00:00:06.776,0.00839005317538977,0,
00:00:06.78,0.00135763152502477,0,
00:00:06.784,-0.00690564792603254,0,
00:00:06.788,-0.00775797758251429,0,
00:00:06.792,0.00923945847898722,0,
00:00:06.796,0.0131021048873663,0,
00:00:06.8,-0.00987008865922689,0,
00:00:06.804,-0.00911307241767645,0,
00:00:06.808,-0.00183253129944205,0,
00:00:06.812,0.00980987306684256,0,
00:00:06.816,0.00103265221696347,0,
00:00:06.82,-0.00373155483976007,0,
00:00:06.824,-0.00162867596372962,0,
00:00:06.828,0.00928011070936918,0,
00:00:06.832,-0.00388027378357947,0,
00:00:06.836,-0.00921703688800335,0,
00:00:06.84,-0.000106344516098034,0,
00:00:06.844,0.0083483187481761,0,
00:00:06.848,0.00436835782602429,0,
00:00:06.852,-0.0052971956320107,0,
00:00:06.856,-0.00612292531877756,0,
00:00:06.86,0.00783591531217098,0,
00:00:06.864,0.00185040000360459,0,
00:00:06.868,-0.00643189065158367,0,
00:00:06.872,-0.00341834826394916,0,
00:00:06.876,0.00526002515107393,0,
00:00:06.88,0.00349112437106669,0,
00:00:06.884,-0.00228855502791703,0,
00:00:06.888,-0.00655198283493519,0,
00:00:06.892,0.00321183050982654,0,
00:00:06.896,0.00809295568615198,0,
00:00:06.9,-0.0024662280920893,0,
00:00:06.904,-0.00620256643742323,0,
00:00:06.908,-0.00640528555959463,0,
00:00:06.912,0.0139899011701345,0,
00:00:06.916,0.00478892773389816,0,
00:00:06.92,-0.0118486601859331,0,
00:00:06.924,-0.00469496380537748,0,
00:00:06.928,0.00580728193745017,0,
00:00:06.932,0.00648968946188688,0,
00:00:06.936,-0.00574294943362474,0,
00:00:06.94,-0.00609968090429902,0,
00:00:06.944,0.0086231529712677,0,
00:00:06.948,0.00279204826802015,0,
00:00:06.952,-0.00795184168964624,0,
00:00:06.956,-0.00142587698064744,0,
00:00:06.96,0.00654659699648619,0,
00:00:06.964,0.00529511831700802,0,
00:00:06.968,-0.00750683387741447,0,
00:00:06.972,-0.00944045558571815,0,
00:00:06.976,0.00814815051853657,0,
00:00:06.98,0.0109007749706507,0,
00:00:06.984,-0.00737925944849849,0,
00:00:06.988,-0.00889194570481777,0,
00:00:06.992,0.00283304625190794,0,
00:00:06.996,0.00874366704374552,0,
00:00:07,-0.00159620796330273,0,
00:00:07.004,-0.00560714025050402,0,
00:00:07.008,-0.00207742676138878,0,
00:00:07.012,0.00367145054042339,0,
00:00:07.016,0.00509391538798809,0,
00:00:07.02,0.000709435960743576,0,
00:00:07.024,-0.00685822917148471,0,
00:00:07.028,-0.00354964728467166,0,
00:00:07.032,0.00524462945759296,0,
00:00:07.036,0.00144229095894843,0,
00:00:07.04,-0.00235205236822367,0,
00:00:07.044,0.00332404533401132,0,
00:00:07.048,-0.000875856028869748,0,
00:00:07.052,-0.00164342031348497,0,
00:00:07.056,-0.00299420882947743,0,
00:00:07.06,0.00407360820099711,0,
00:00:07.064,0.00230960571207106,0,
00:00:07.068,-0.00489811133593321,0,
00:00:07.072,-0.00240231188945472,0,
00:00:07.076,0.00537110026925802,0,
00:00:07.08,0.00506273051723838,0,
00:00:07.084,-0.00698396284133196,0,
00:00:07.088,-0.00458101741969585,0,
00:00:07.092,0.00258168228901923,0,
00:00:07.096,0.00551858264952898,0,
00:00:07.1,-0.00234272750094533,0,
00:00:07.104,-0.00196073483675718,0,
00:00:07.108,0.00427644513547421,0,
00:00:07.112,0.00150824792217463,0,
00:00:07.116,-0.00393669400364161,0,
00:00:07.12,-0.00723752100020647,0,
00:00:07.124,-0.000730427447706461,0,
00:00:07.128,0.0147822657600045,0,
00:00:07.132,0.00364709133282304,0,
00:00:07.136,-0.013146216981113,0,
00:00:07.14,-0.005377147346735,0,
00:00:07.144,0.00372618529945612,0,
00:00:07.148,0.00676987459883094,0,
00:00:07.152,0.00245257001370192,0,
00:00:07.156,-0.00797280296683311,0,
00:00:07.16,0.000564035261049867,0,
00:00:07.164,0.00441240984946489,0,
00:00:07.168,0.00143832946196198,0,
00:00:07.172,-0.00784081872552633,0,
00:00:07.176,0.00127422471996397,0,
00:00:07.18,0.00721670174971223,0,
00:00:07.184,-0.00426746439188719,0,
00:00:07.188,-0.00339734205044806,0,
00:00:07.192,0.000152161897858605,0,
00:00:07.196,0.00850686896592379,0,
00:00:07.2,0.000518444809131324,0,
00:00:07.204,-0.00988786853849888,0,
00:00:07.208,-4.25874532083981E-05,0,
00:00:07.212,0.00495488196611404,0,
00:00:07.216,0.000347278284607455,0,
00:00:07.22,-0.00299418810755014,0,
00:00:07.224,0.00126117351464927,0,
00:00:07.228,0.00356573704630136,0,
00:00:07.232,-0.00155883608385921,0,
00:00:07.236,-0.00422780634835362,0,
00:00:07.24,-0.00108949246350676,0,
00:00:07.244,0.00594154838472605,0,
00:00:07.248,0.00484717357903719,0,
00:00:07.252,-0.00753721501678228,0,
00:00:07.256,-0.00296803866513073,0,
00:00:07.26,-0.00164222507737577,0,
00:00:07.264,0.00802154745906591,0,
00:00:07.268,-0.00263168127276003,0,
00:00:07.272,-0.00445256475359201,0,
00:00:07.276,0.00844635162502527,0,
00:00:07.28,0.00162891927175224,0,
00:00:07.284,-0.00497812358662486,0,
00:00:07.288,-0.00807798374444246,0,
00:00:07.292,0.00316294585354626,0,
00:00:07.296,0.00894417706876993,0,
00:00:07.3,-0.00147239491343498,0,
00:00:07.304,-0.00764765543863177,0,
00:00:07.308,0.00193132052663714,0,
00:00:07.312,0.0053327139467001,0,
00:00:07.316,0.00157648045569658,0,
00:00:07.32,-0.00615005102008581,0,
00:00:07.324,-0.00327994208782911,0,
00:00:07.328,0.00513974577188492,0,
00:00:07.332,0.00324642169289291,0,
00:00:07.336,-0.00249709142372012,0,
00:00:07.34,-0.00456501496955752,0,
00:00:07.344,0.00126303848810494,0,
00:00:07.348,0.00238632573746145,0,
00:00:07.352,0.00554620008915663,0,
00:00:07.356,-0.00805115606635809,0,
00:00:07.36,-9.66614315984771E-05,0,
00:00:07.364,0.00620116014033556,0,
00:00:07.368,-0.00452831946313381,0,
00:00:07.372,-0.00310620572417974,0,
00:00:07.376,0.00269066286273301,0,
00:00:07.38,0.00687279412522912,0,
00:00:07.384,-0.00101467419881374,0,
00:00:07.388,-0.0101465787738562,0,
00:00:07.392,0.000638311728835106,0,
00:00:07.396,0.00584172317758203,0,
00:00:07.4,0.00090926670236513,0,
00:00:07.404,-0.00290955603122711,0,
00:00:07.408,0.00307949050329626,0,
00:00:07.412,0.00123009644448757,0,
00:00:07.416,-0.00347254448570311,0,
00:00:07.42,-0.00658606830984354,0,
00:00:07.424,0.00384068093262613,0,
00:00:07.428,0.0067394208163023,0,
00:00:07.432,0.00203534821048379,0,
00:00:07.436,-0.00644679134711623,0,
00:00:07.44,-0.00388368195854127,0,
00:00:07.444,0.0046233800239861,0,
00:00:07.448,0.00300805550068617,0,
00:00:07.452,-0.00661920057609677,0,
00:00:07.456,-0.000439547526184469,0,
00:00:07.46,0.0068082557991147,0,
00:00:07.464,0.00295297941192985,0,
00:00:07.468,-0.00388699886389077,0,
00:00:07.472,-0.00801593344658613,0,
00:00:07.476,0.00253213522955775,0,
00:00:07.48,0.00821713078767061,0,
00:00:07.484,-0.00189498497638851,0,
00:00:07.488,-0.00975174456834793,0,
00:00:07.492,0.0062169493176043,0,
00:00:07.496,0.00737284403294325,0,
00:00:07.5,-0.00580419506877661,0,
00:00:07.504,-0.00271373661234975,0,
00:00:07.508,-0.000297464546747506,0,
00:00:07.512,0.000952280417550355,0,
00:00:07.516,0.00113947677891701,0,
00:00:07.52,0.000704800710082054,0,
00:00:07.524,0.000129310879856348,0,
00:00:07.528,-0.000267036841250956,0,
00:00:07.532,0.00169203744735569,0,
00:00:07.536,-0.00433696527034044,0,
00:00:07.54,-0.0018472564406693,0,
00:00:07.544,0.00556293129920959,0,
00:00:07.548,0.0028779876884073,0,
00:00:07.552,-0.00522474478930235,0,
00:00:07.556,-0.00310395006090403,0,
00:00:07.56,0.00270828697830439,0,
00:00:07.564,0.00679742777720094,0,
00:00:07.568,-0.00525960372760892,0,
00:00:07.572,-0.0062348903156817,0,
00:00:07.576,0.00602905638515949,0,
00:00:07.58,0.00429234653711319,0,
00:00:07.584,-0.00234608841128647,0,
00:00:07.588,-0.0050971289165318,0,
00:00:07.592,-0.00147956795990467,0,
00:00:07.596,0.00810774695128202,0,
00:00:07.6,-0.00095258658984676,0,
00:00:07.604,-0.00699158711358905,0,
00:00:07.608,0.00435048481449485,0,
00:00:07.612,0.00336930155754089,0,
00:00:07.616,-0.00230450090020895,0,
00:00:07.62,-0.00452562933787704,0,
00:00:07.624,0.0032648618798703,0,
00:00:07.628,0.000321480765705928,0,
00:00:07.632,0.00178666820283979,0,
00:00:07.636,-0.00416069990023971,0,
00:00:07.64,0.000462883268482983,0,
00:00:07.644,0.00166379346046597,0,
00:00:07.648,0.00114058644976467,0,
00:00:07.652,0.000182083022082224,0,
00:00:07.656,-0.00256265234202147,0,
00:00:07.66,0.00131600897293538,0,
00:00:07.664,0.00325627881102264,0,
00:00:07.668,0.000141459953738376,0,
00:00:07.672,-0.00849201250821352,0,
00:00:07.676,0.00132525525987148,0,
00:00:07.68,0.0055823284201324,0,
00:00:07.684,0.000255079852649942,0,
00:00:07.688,-0.00345222209580243,0,
00:00:07.692,-0.00127221026923507,0,
00:00:07.696,0.00736832432448864,0,
00:00:07.7,0.00224695215001702,0,
00:00:07.704,-0.0115848472341895,0,
00:00:07.708,-0.0032539302483201,0,
00:00:07.712,0.00923197157680988,0,
00:00:07.716,0.00101297826040536,0,
00:00:07.72,-0.00349415862001479,0,
00:00:07.724,-0.00344694196246564,0,
00:00:07.728,0.00933061540126801,0,
00:00:07.732,0.00183615542482585,0,
00:00:07.736,-0.00943339522928,0,
00:00:07.74,-0.00249590212479234,0,
00:00:07.744,0.00624237908050418,0,
00:00:07.748,0.00145780318416655,0,
00:00:07.752,-0.000918546109460294,0,
00:00:07.756,-0.00350511679425836,0,
00:00:07.76,0.00105788395740092,0,
00:00:07.764,0.00148462678771466,0,
00:00:07.768,0.00469845766201615,0,
00:00:07.772,-0.00635124044492841,0,
00:00:07.776,-0.00403483305126429,0,
00:00:07.78,0.00483767688274384,0,
00:00:07.784,-0.000702069897670299,0,
00:00:07.788,0.00186170020606369,0,
00:00:07.792,0.00111994158942252,0,
00:00:07.796,0.00390621391125023,0,
00:00:07.8,-0.00496678566560149,0,
00:00:07.804,-0.00843409169465303,0,
00:00:07.808,0.0030834274366498,0,
00:00:07.812,0.00707038259133697,0,
00:00:07.816,0.000783002411480993,0,
00:00:07.82,-0.00374346738681197,0,
00:00:07.824,0.00224323989823461,0,
00:00:07.828,0.000792426173575222,0,
00:00:07.832,-0.00346473092213273,0,
00:00:07.836,-0.00215691374614835,0,
00:00:07.84,-0.00186384492553771,0,
00:00:07.844,0.00356673100031912,0,
00:00:07.848,0.00743167987093329,0,
00:00:07.852,-0.00705092120915651,0,
00:00:07.856,-0.0022608689032495,0,
00:00:07.86,0.00539718847721815,0,
00:00:07.864,0.00457251816987991,0,
00:00:07.868,-0.00764200557023287,0,
00:00:07.872,-0.00710007641464472,0,
00:00:07.876,0.00447397213429213,0,
00:00:07.88,0.00735663808882236,0,
00:00:07.884,0.00228012353181839,0,
00:00:07.888,-0.0085947597399354,0,
00:00:07.892,-0.00210750964470208,0,
00:00:07.896,0.00817646645009518,0,
00:00:07.9,0.00322618242353201,0,
00:00:07.904,-0.0110438195988536,0,
00:00:07.908,-0.00320690963417292,0,
00:00:07.912,0.00691582402214408,0,
00:00:07.916,0.00477948738262057,0,
00:00:07.92,-0.00607792474329472,0,
00:00:07.924,0.00118696317076683,0,
00:00:07.928,0.00399990659207106,0,
00:00:07.932,-0.00352928088977933,0,
00:00:07.936,0.00166320009157062,0,
00:00:07.94,-0.00580156268551946,0,
00:00:07.944,0.00459826784208417,0,
00:00:07.948,0.00318837794475257,0,
00:00:07.952,-0.0046205734834075,0,
00:00:07.956,-0.00267212651669979,0,
00:00:07.96,0.00284996768459678,0,
00:00:07.964,0.00672417460009456,0,
00:00:07.968,-0.00541228242218494,0,
00:00:07.972,-0.00428294530138373,0,
00:00:07.976,0.00192951841745526,0,
00:00:07.98,0.00464467331767082,0,
00:00:07.984,-0.000829648517537862,0,
00:00:07.988,-0.00610444787889719,0,
00:00:07.992,0.00485849287360907,0,
00:00:07.996,0.00332819344475865,0,
00:00:08,-0.000570623611565679,0,
00:00:08.004,-0.0089207049459219,0,
00:00:08.008,0.00134842086117715,0,
00:00:08.012,0.0058527085930109,0,
00:00:08.016,0.00052460003644228,0,
00:00:08.02,-0.00124776398297399,0,
00:00:08.024,-0.00327184190973639,0,
00:00:08.028,0.00146320858038962,0,
00:00:08.032,0.00797788146883249,0,
00:00:08.036,-0.00743079883977771,0,
00:00:08.04,-0.0075812479481101,0,
00:00:08.044,0.00420608650892973,0,
00:00:08.048,0.0094867330044508,0,
00:00:08.052,-0.00364641146734357,0,
00:00:08.056,-0.00612204754725099,0,
00:00:08.06,0.00727181741967797,0,
00:00:08.064,0.00131093605887145,0,
00:00:08.068,-0.00463888794183731,0,
00:00:08.072,-0.00749660190194845,0,
00:00:08.076,0.00571068655699492,0,
00:00:08.08,0.00509636010974646,0,
00:00:08.084,-0.00118173204828054,0,
00:00:08.088,-0.00427585002034903,0,
00:00:08.092,-0.00127074343618006,0,
00:00:08.096,0.00782804843038321,0,
00:00:08.1,-0.00349663244560361,0,
00:00:08.104,-0.00332928635179996,0,
00:00:08.108,0.00176110537722707,0,
00:00:08.112,0.00389678357169032,0,
00:00:08.116,0.0025940453633666,0,
00:00:08.12,-0.0104259485378861,0,
00:00:08.124,-0.00255924207158387,0,
00:00:08.128,0.00717345951125026,0,
00:00:08.132,0.00468104891479015,0,
00:00:08.136,-0.00425289571285248,0,
00:00:08.14,-0.00308017455972731,0,
00:00:08.144,0.00216576200909913,0,
00:00:08.148,0.00616531865671277,0,
00:00:08.152,-0.00566456932574511,0,
00:00:08.156,-0.00425205379724503,0,
00:00:08.16,0.00211028079502285,0,
00:00:08.164,0.00483424123376608,0,
00:00:08.168,0.00135890836827457,0,
00:00:08.172,-0.0101363146677613,0,
00:00:08.176,0.0051479865796864,0,
00:00:08.18,0.00680713821202517,0,
00:00:08.184,-0.0057235611602664,0,
00:00:08.188,-0.0043681962415576,0,
00:00:08.192,1.47284436025075E-05,0,
00:00:08.196,0.00892808008939028,0,
00:00:08.2,-0.00308508169837296,0,
00:00:08.204,-0.00141854502726346,0,
00:00:08.208,-0.000618833175394684,0,
00:00:08.212,0.00190705386921763,0,
00:00:08.216,0.000190917155123316,0,
00:00:08.22,-0.00757027603685856,0,
00:00:08.224,0.000245559145696461,0,
00:00:08.228,0.0101925283670425,0,
00:00:08.232,0.00202294997870922,0,
00:00:08.236,-0.0072123184800148,0,
00:00:08.24,-0.0043294713832438,0,
00:00:08.244,0.00465575652197003,0,
00:00:08.248,0.00329807610251009,0,
00:00:08.252,-0.00425697164610028,0,
00:00:08.256,-0.00227823085151613,0,
00:00:08.26,0.00514118606224656,0,
00:00:08.264,0.00265895575284958,0,
00:00:08.268,-0.00316860992461443,0,
00:00:08.272,-0.00706512294709682,0,
00:00:08.276,0.00314611638896167,0,
00:00:08.28,0.00624865153804421,0,
00:00:08.284,0.00189444469287992,0,
00:00:08.288,-0.00838767923414707,0,
00:00:08.292,-0.00166506925597787,0,
00:00:08.296,0.00854549184441566,0,
00:00:08.3,0.00130424520466477,0,
00:00:08.304,-0.00703833671286702,0,
00:00:08.308,-0.00368650211021304,0,
00:00:08.312,0.00530691305175424,0,
00:00:08.316,0.00160268147010356,0,
00:00:08.32,-0.000145806392538361,0,
00:00:08.324,-0.000688462168909609,0,
00:00:08.328,-0.000586514302995056,0,
00:00:08.332,0.00181723991408944,0,
00:00:08.336,-0.00401994166895747,0,
00:00:08.34,0.000505029514897615,0,
00:00:08.344,0.00163436552975327,0,
00:00:08.348,0.00318457116372883,0,
00:00:08.352,-0.00178972724825144,0,
00:00:08.356,-0.00416751578450203,0,
00:00:08.36,0.00118765665683895,0,
00:00:08.364,0.0041372012346983,0,
00:00:08.368,0.00118627399206161,0,
00:00:08.372,-0.00786338839679956,0,
00:00:08.376,-0.00483256904408336,0,
00:00:08.38,0.0132701862603426,0,
00:00:08.384,0.0110922809690237,0,
00:00:08.388,-0.0106925452128053,0,
00:00:08.392,-0.0147064421325922,0,
00:00:08.396,0.00480351271107793,0,
00:00:08.4,0.000113552210677881,0,
00:00:08.404,0.00204445049166679,0,
00:00:08.408,0.00552215939387679,0,
00:00:08.412,0.00285088224336505,0,
00:00:08.416,0.00140536576509476,0,
00:00:08.42,-0.0086993258446455,0,
00:00:08.424,-0.0022983169183135,0,
00:00:08.428,0.00581130245700479,0,
00:00:08.432,0.00499353045597672,0,
00:00:08.436,-0.00943033397197723,0,
00:00:08.44,-0.00498240254819393,0,
00:00:08.444,0.00822884775698185,0,
00:00:08.448,0.00761732738465071,0,
00:00:08.452,-0.00428489781916142,0,
00:00:08.456,-0.00948464311659336,0,
00:00:08.46,0.00164321064949036,0,
00:00:08.464,0.00817577354609966,0,
00:00:08.468,-0.00351505354046822,0,
00:00:08.472,-0.00311734387651086,0,
00:00:08.476,0.00211753766052425,0,
00:00:08.48,0.00625212304294109,0,
00:00:08.484,-0.00137262267526239,0,
00:00:08.488,-0.0101836249232292,0,
00:00:08.492,-0.00126425735652447,0,
00:00:08.496,0.0101175187155604,0,
00:00:08.5,0.000735377601813525,0,
00:00:08.504,-0.00639727665111423,0,
00:00:08.508,0.00400317274034023,0,
00:00:08.512,0.00261935917660594,0,
00:00:08.516,-0.000882484950125217,0,
00:00:08.52,-0.00888467580080032,0,
00:00:08.524,-0.000521166890393943,0,
00:00:08.528,0.00595758343115449,0,
00:00:08.532,0.00840362254530191,0,
00:00:08.536,-0.00960273575037718,0,
00:00:08.54,-0.00550842890515924,0,
00:00:08.544,0.0184209160506725,0,
00:00:08.548,0.00189445936121047,0,
00:00:08.552,-0.0206376202404499,0,
00:00:08.556,-0.00571521278470755,0,
00:00:08.56,0.00667766481637955,0,
00:00:08.564,0.00988330878317356,0,
00:00:08.568,-3.54830299329478E-05,0,
00:00:08.572,-0.00191926420666277,0,
00:00:08.576,0.000911937677301466,0,
00:00:08.58,0.00407367805019021,0,
00:00:08.584,-0.00521102920174599,0,
00:00:08.588,-0.00890770182013512,0,
00:00:08.592,0.00272155087441206,0,
00:00:08.596,0.00698824739083648,0,
00:00:08.6,0.00509440759196877,0,
00:00:08.604,-0.00743619352579117,0,
00:00:08.608,-0.00497509958222508,0,
00:00:08.612,0.00241919653490186,0,
00:00:08.616,0.00347776734270155,0,
00:00:08.62,0.00390624580904841,0,
00:00:08.624,-0.00415888708084822,0,
00:00:08.628,0.00121953140478581,0,
00:00:08.632,0.000301629508612677,0,
00:00:08.636,-0.00539671629667282,0,
00:00:08.64,-0.00388094899244606,0,
00:00:08.644,0.00621685711666942,0,
00:00:08.648,0.00939279049634933,0,
00:00:08.652,-0.00491483975201845,0,
00:00:08.656,-0.00538543798029423,0,
00:00:08.66,0.000399673532228917,0,
00:00:08.664,0.00357931526377797,0,
00:00:08.668,0.000953365815803409,0,
00:00:08.672,-0.00569336349144578,0,
00:00:08.676,-0.00029128257301636,0,
00:00:08.68,0.00393657898530364,0,
00:00:08.684,-0.000131666878587566,0,
00:00:08.688,-0.00284668570384383,0,
00:00:08.692,-0.000394361501093954,0,
00:00:08.696,0.00796534493565559,0,
00:00:08.7,0.000302018685033545,0,
00:00:08.704,-0.00983395520597696,0,
00:00:08.708,-0.00196106522344053,0,
00:00:08.712,0.00705509260296822,0,
00:00:08.716,0.0041018882766366,0,
00:00:08.72,-0.00483115576207638,0,
00:00:08.724,-0.005445153452456,0,
00:00:08.728,0.00832771137356758,0,
00:00:08.732,0.00408499874174595,0,
00:00:08.736,-0.00851872470229864,0,
00:00:08.74,-0.00736154988408089,0,
00:00:08.744,0.00686153117567301,0,
00:00:08.748,0.00587975792586803,0,
00:00:08.752,-0.00315584358759224,0,
00:00:08.756,-0.00265243789181113,0,
00:00:08.76,0.00200039404444397,0,
00:00:08.764,0.00781509093940258,0,
00:00:08.768,-0.00386617402546108,0,
00:00:08.772,-0.0141713721677661,0,
00:00:08.776,0.00262554292567074,0,
00:00:08.78,0.0087426146492362,0,
00:00:08.784,0.00456927251070738,0,
00:00:08.788,-0.00697348220273852,0,
00:00:08.792,-0.00167476874776185,0,
00:00:08.796,0.00560968043282628,0,
00:00:08.8,0.000214270359720103,0,
00:00:08.804,-0.00198193266987801,0,
00:00:08.808,-0.00399620784446597,0,
00:00:08.812,0.00319657009094954,0,
00:00:08.816,0.00402591889724135,0,
00:00:08.82,-0.0108854370191693,0,
00:00:08.824,-0.00177584681659937,0,
00:00:08.828,0.0149885611608624,0,
00:00:08.832,0.00209230580367148,0,
00:00:08.836,-0.00874548126012087,0,
00:00:08.84,-0.00565472478047013,0,
00:00:08.844,0.0041875927709043,0,
00:00:08.848,0.00564696453511715,0,
00:00:08.852,-0.00772142643108964,0,
00:00:08.856,-0.00143807276617736,0,
00:00:08.86,0.00476355897262692,0,
00:00:08.864,0.00769690284505486,0,
00:00:08.868,-0.00141871999949217,0,
00:00:08.872,-0.0131655801087618,0,
00:00:08.876,0.00179756584111601,0,
00:00:08.88,0.0112762460485101,0,
00:00:08.884,-0.00693322345614433,0,
00:00:08.888,-0.000693570473231375,0,
00:00:08.892,0.00125306856352836,0,
00:00:08.896,0.00316183152608573,0,
00:00:08.9,-0.0016882490599528,0,
00:00:08.904,-0.00198249681852758,0,
00:00:08.908,-0.00486994488164783,0,
00:00:08.912,0.00854469742625952,0,
00:00:08.916,0.00230985670350492,0,
00:00:08.92,-0.00625226693227887,0,
00:00:08.924,-0.00558282295241952,0,
00:00:08.928,0.00906478241086006,0,
00:00:08.932,0.00289663206785917,0,
00:00:08.936,-0.00600374257192016,0,
00:00:08.94,-0.00150209304410964,0,
00:00:08.944,-0.00132538843899965,0,
00:00:08.948,0.00535151548683643,0,
00:00:08.952,0.000563698471523821,0,
00:00:08.956,-0.00331356818787754,0,
00:00:08.96,0.00276339985430241,0,
00:00:08.964,0.00112088618334383,0,
00:00:08.968,-0.00546046951785684,0,
00:00:08.972,-0.00234798365272582,0,
00:00:08.976,0.00783633720129728,0,
00:00:08.98,-0.000649931840598583,0,
00:00:08.984,-0.000276049715466797,0,
00:00:08.988,-0.00745823560282588,0,
00:00:08.992,0.000296824582619593,0,
00:00:08.996,0.00798673741519451,0,
00:00:09,0.00378669449128211,0,
00:00:09.004,-0.00781464017927647,0,
00:00:09.008,-0.00224123313091695,0,
00:00:09.012,0.00756156491115689,0,
00:00:09.016,0.000549140968360007,0,
00:00:09.02,-0.00729917827993631,0,
00:00:09.024,-0.00559984240680933,0,
00:00:09.028,0.00970991142094135,0,
00:00:09.032,0.00158638320863247,0,
00:00:09.036,-0.0035239567514509,0,
00:00:09.04,0.000270361080765724,0,
00:00:09.044,0.00285526155494154,0,
00:00:09.048,0.000308795657474548,0,
00:00:09.052,-0.00395066663622856,0,
00:00:09.056,-0.00646279146894813,0,
00:00:09.06,0.00220668222755194,0,
00:00:09.064,0.0112156327813864,0,
00:00:09.068,0.00191861041821539,0,
00:00:09.072,-0.00999753922224045,0,
00:00:09.076,-0.000997137045487762,0,
00:00:09.08,0.00394043093547225,0,
00:00:09.084,-0.00024282762024086,0,
00:00:09.088,-0.00306699331849813,0,
00:00:09.092,-0.000544942973647267,0,
00:00:09.096,0.00797516945749521,0,
00:00:09.1,-0.00163403619080782,0,
00:00:09.104,-0.00560354767367244,0,
00:00:09.108,-0.00215688371099532,0,
00:00:09.112,0.00772523321211338,0,
00:00:09.116,0.00109711813274771,0,
00:00:09.12,-0.00877908710390329,0,
00:00:09.124,-0.00122046249452978,0,
00:00:09.128,0.00728303287178278,0,
00:00:09.132,0.00600122101604939,0,
00:00:09.136,-0.00507137784734368,0,
00:00:09.14,-0.0114303408190608,0,
00:00:09.144,0.00626933900639415,0,
00:00:09.148,0.00837822817265987,0,
00:00:09.152,-0.00681217294186354,0,
00:00:09.156,-0.000140804680995643,0,
00:00:09.16,0.00138180959038436,0,
00:00:09.164,0.00288379611447454,0,
00:00:09.168,-0.0020783229265362,0,
00:00:09.172,-0.00431727711111307,0,
00:00:09.176,-0.000865443202201277,0,
00:00:09.18,0.0083243865519762,0,
00:00:09.184,-0.00106498214881867,0,
00:00:09.188,-0.00516721652820706,0,
00:00:09.192,-0.00199573603458703,0,
00:00:09.196,0.00765096442773938,0,
00:00:09.2,-0.00116112374234945,0,
00:00:09.204,-0.00489631900563836,0,
00:00:09.208,-0.00164183310698718,0,
00:00:09.212,0.00581463379785419,0,
00:00:09.216,0.00295327324420214,0,
00:00:09.22,-0.00529972463846207,0,
00:00:09.224,-0.00115052633918822,0,
00:00:09.228,0.00064618926262483,0,
00:00:09.232,0.00305862794630229,0,
00:00:09.236,-0.00135455024428666,0,
00:00:09.24,-0.00567510537803173,0,
00:00:09.244,0.00563271669670939,0,
00:00:09.248,0.0059972801245749,0,
00:00:09.252,-0.00442729983478785,0,
00:00:09.256,-0.010808439925313,0,
00:00:09.26,0.00657121557742357,0,
00:00:09.264,0.00835565384477377,0,
00:00:09.268,-0.00493683852255344,0,
00:00:09.272,-0.00440661422908306,0,
00:00:09.276,0.00366282812319696,0,
00:00:09.28,0.00235277973115444,0,
00:00:09.284,-0.00264876754954457,0,
00:00:09.288,-0.00631282897666097,0,
00:00:09.292,0.00368477962911129,0,
00:00:09.296,0.00848932657390833,0,
00:00:09.3,-0.00229082000441849,0,
00:00:09.304,-0.00831050798296928,0,
00:00:09.308,0.0016562914242968,0,
00:00:09.312,0.00748548423871398,0,
00:00:09.316,-0.000145462196087465,0,
00:00:09.32,-0.00961856078356504,0,
00:00:09.324,-0.00341696082614362,0,
00:00:09.328,0.011692313477397,0,
00:00:09.332,0.00613075494766235,0,
00:00:09.336,-0.0083077372983098,0,
00:00:09.34,-0.00625590328127146,0,
00:00:09.344,0.00159224774688482,0,
00:00:09.348,0.00540019711479545,0,
00:00:09.352,-0.0018990826793015,0,
00:00:09.356,-0.00138755771331489,0,
00:00:09.36,0.00259531964547932,0,
00:00:09.364,0.00567480362951756,0,
00:00:09.368,-0.00437029078602791,0,
00:00:09.372,-0.00888733938336372,0,
00:00:09.376,0.00224591884762049,0,
00:00:09.38,0.00642345100641251,0,
00:00:09.384,0.00056715653045103,0,
00:00:09.388,-0.00358971185050905,0,
00:00:09.392,0.000484052172396332,0,
00:00:09.396,0.00304937199689448,0,
00:00:09.4,-0.00168017996475101,0,
00:00:09.404,-0.0019791848026216,0,
00:00:09.408,-0.00278897024691105,0,
00:00:09.412,0.0045192576944828,0,
00:00:09.416,0.00268766540102661,0,
00:00:09.42,-0.00473968638107181,0,
00:00:09.424,-0.00245243194513023,0,
00:00:09.428,0.00313799548894167,0,
00:00:09.432,0.00480649480596185,0,
00:00:09.436,-0.00138023123145103,0,
00:00:09.44,-0.00475000124424696,0,
00:00:09.444,0.000311351846903563,0,
00:00:09.448,0.00352182541973889,0,
00:00:09.452,-0.00104575499426574,0,
00:00:09.456,-0.00568368984386325,0,
00:00:09.46,0.00337713281624019,0,
00:00:09.464,0.00780072435736656,0,
00:00:09.468,-0.00285355071537197,0,
00:00:09.472,-0.00436694640666246,0,
00:00:09.476,-0.0042580459266901,0,
00:00:09.48,0.00643978174775839,0,
00:00:09.484,-0.000689510314259678,0,
00:00:09.488,-0.00357503141276538,0,
00:00:09.492,0.00162207963876426,0,
00:00:09.496,0.00436804629862309,0,
00:00:09.5,-0.000898051192052662,0,
00:00:09.504,-0.00399306649342179,0,
00:00:09.508,-0.00124544219579548,0,
00:00:09.512,0.00560113741084933,0,
00:00:09.516,0.0024579802993685,0,
00:00:09.52,-0.00572985457256436,0,
00:00:09.524,-0.00341440388001502,0,
00:00:09.528,0.00474477699026465,0,
00:00:09.532,0.0028977224137634,0,
00:00:09.536,-0.00264445831999183,0,
00:00:09.54,-0.00451598409563303,0,
00:00:09.544,0.00141406443435699,0,
00:00:09.548,0.00461177388206124,0,
00:00:09.552,-0.000494491774588823,0,
00:00:09.556,-0.00572994537651539,0,
00:00:09.56,0.00297468760982156,0,
00:00:09.564,0.00734935607761145,0,
00:00:09.568,-0.00314569706097245,0,
00:00:09.572,-0.00859441142529249,0,
00:00:09.576,0.00185079139191657,0,
00:00:09.58,0.00788800977170467,0,
00:00:09.584,0.000211273902095854,0,
00:00:09.588,-0.00943962018936872,0,
00:00:09.592,0.000733449123799801,0,
00:00:09.596,0.00556008191779256,0,
00:00:09.6,0.00054885057033971,0,
00:00:09.604,-0.00314776133745909,0,
00:00:09.608,-0.00112909392919391,0,
00:00:09.612,0.00733351893723011,0,
00:00:09.616,-0.00203995476476848,0,
00:00:09.62,-0.0056996732018888,0,
00:00:09.624,-0.00203130347654223,0,
00:00:09.628,0.0079263998195529,0,
00:00:09.632,0.00125613366253674,0,
00:00:09.636,-0.00663716811686754,0,
00:00:09.64,-0.00321231596171856,0,
00:00:09.644,0.00558324577286839,0,
00:00:09.648,0.003691375721246,0,
00:00:09.652,-0.00228542438708246,0,
00:00:09.656,-0.00668862042948604,0,
00:00:09.66,0.00304029975086451,0,
00:00:09.664,0.00796933099627495,0,
00:00:09.668,-0.00251086172647774,0,
00:00:09.672,-0.00618252204731107,0,
00:00:09.676,-0.000128823681734502,0,
00:00:09.68,0.00395743362605572,0,
00:00:09.684,-0.000314727541990578,0,
00:00:09.688,-0.00306854979135096,0,
00:00:09.692,0.00155903713312,0,
00:00:09.696,0.00392620218917727,0,
00:00:09.7,0.000735708046704531,0,
00:00:09.704,-0.00617606099694967,0,
00:00:09.708,-0.0028361864387989,0,
00:00:09.712,0.00562399299815297,0,
00:00:09.716,0.00351141183637083,0,
00:00:09.72,-0.00249552982859313,0,
00:00:09.724,-0.00472941109910607,0,
00:00:09.728,0.00314276735298336,0,
00:00:09.732,0.00235430337488651,0,
00:00:09.736,-0.00433762883767486,0,
00:00:09.74,-0.00183638010639697,0,
00:00:09.744,0.00357983028516173,0,
00:00:09.748,0.00701117468997836,0,
00:00:09.752,-0.00555197987705469,0,
00:00:09.756,-0.0046366723254323,0,
00:00:09.76,0.00159069080837071,0,
00:00:09.764,0.00653079245239496,0,
00:00:09.768,-0.00282779848203063,0,
00:00:09.772,-0.00558668840676546,0,
00:00:09.776,-0.00133505603298545,0,
00:00:09.78,0.00863375980407,0,
00:00:09.784,0.00161489506717771,0,
00:00:09.788,-0.00875097513198853,0,
00:00:09.792,0.00056191609473899,0,
00:00:09.796,0.00494042644277215,0,
00:00:09.8,0.00202525197528303,0,
00:00:09.804,-0.00751025089994073,0,
00:00:09.808,-0.000791986880358309,0,
00:00:09.812,0.00899249035865068,0,
00:00:09.816,0.00128115608822554,0,
00:00:09.82,-0.00941709522157907,0,
00:00:09.824,2.12882296182215E-05,0,
00:00:09.828,0.00267570908181369,0,
00:00:09.832,0.0041320244781673,0,
00:00:09.836,-0.0035104772541672,0,
00:00:09.84,-0.00233147013932467,0,
00:00:09.844,0.00457049766555429,0,
00:00:09.848,0.00206228788010776,0,
00:00:09.852,-0.00347969145514071,0,
00:00:09.856,-0.00496714515611529,0,
00:00:09.86,0.00139750121161342,0,
00:00:09.864,0.00694105820730329,0,
00:00:09.868,-0.0021630534902215,0,
00:00:09.872,-0.00716407271102071,0,
00:00:09.876,0.00285908835940063,0,
00:00:09.88,0.00814164709299803,0,
00:00:09.884,-0.00221226457506418,0,
00:00:09.888,-0.00596742564812303,0,
00:00:09.892,-7.94839361333288E-05,0,
00:00:09.896,0.00387328304350376,0,
00:00:09.9,-0.000448994251200929,0,
00:00:09.904,-0.00317831174470484,0,
00:00:09.908,0.00150915142148733,0,
00:00:09.912,0.00393220037221909,0,
00:00:09.916,0.000771671184338629,0,
00:00:09.92,-0.00613802019506693,0,
00:00:09.924,-0.00281323865056038,0,
00:00:09.928,0.00562828592956066,0,
00:00:09.932,0.00350296916440129,0,
00:00:09.936,-0.00458356458693743,0,
00:00:09.94,-0.00276330392807722,0,
00:00:09.944,0.00478133279830217,0,
00:00:09.948,0.00253271427936852,0,
00:00:09.952,-0.00310096400789917,0,
00:00:09.956,-0.00691173644736409,0,
00:00:09.96,0.00328433234244585,0,
00:00:09.964,0.00839459989219904,0,
00:00:09.968,-0.00215638126246631,0,
00:00:09.972,-0.00809512101113796,0,
00:00:09.976,0.00182849529664963,0,
00:00:09.98,0.00548341311514378,0,
00:00:09.984,0.00181450706440955,0,
00:00:09.988,-0.00803734641522169,0,
00:00:09.992,0.000850310898385942,0,
00:00:09.996,0.00478784646838903,0,
00:00:10,0.00171363283880055,0,
00:00:10.004,-0.00566008966416121,0,
00:00:10.008,-0.0028128910344094,0,
00:00:10.012,0.00537310866639018,0,
00:00:10.016,0.00322953867726028,0,
00:00:10.02,-0.00473633827641606,0,
00:00:10.024,-0.00484813144430518,0,
00:00:10.028,0.00891493819653988,0,
00:00:10.032,0.00230156583711505,0,
00:00:10.036,-0.00657145818695426,0,
00:00:10.04,-0.00385878374800086,0,
00:00:10.044,0.00275003677234054,0,
00:00:10.048,0.00729537103325129,0,
00:00:10.052,-0.0026540094986558,0,
00:00:10.056,-0.00583420461043715,0,
00:00:10.06,0.000359205267159268,0,
00:00:10.064,0.00429232604801655,0,
00:00:10.068,-0.000236192892771214,0,
00:00:10.072,-0.00318849296309054,0,
00:00:10.076,0.00136647105682641,0,
00:00:10.08,0.00377001031301916,0,
00:00:10.084,-0.00140953902155161,0,
00:00:10.088,-0.00419023958966136,0,
00:00:10.092,0.000934232084546238,0,
00:00:10.096,0.00388032291084528,0,
00:00:10.1,0.0010589964222163,0,
00:00:10.104,-0.00577050633728504,0,
00:00:10.108,-0.00255450117401779,0,
00:00:10.112,0.0057130460627377,0,
00:00:10.116,0.00552555546164513,0,
00:00:10.12,-0.00666990736499429,0,
00:00:10.124,-0.00450253952294588,0,
00:00:10.128,0.00455689895898104,0,
00:00:10.132,0.0033775104675442,0,
00:00:10.136,-0.00204324489459395,0,
00:00:10.14,-0.00624762615188956,0,
00:00:10.144,0.00546293752267957,0,
00:00:10.148,0.00612311298027635,0,
00:00:10.152,-0.00628990307450294,0,
00:00:10.156,-0.00453409599140286,0,
00:00:10.16,0.00221707974560559,0,
00:00:10.164,0.0071645206771791,0,
00:00:10.168,-0.00250591640360653,0,
00:00:10.172,-0.00769371446222067,0,
00:00:10.176,0.00247257575392723,0,
00:00:10.18,0.00595192797482014,0,
00:00:10.184,-0.000127725113998167,0,
00:00:10.188,-0.00412449147552252,0,
00:00:10.192,-0.00180612946860492,0,
00:00:10.196,0.00508885178714991,0,
00:00:10.2,0.00431279465556145,0,
00:00:10.204,-0.00971146114170551,0,
00:00:10.208,-0.00285879778675735,0,
00:00:10.212,0.00850754324346781,0,
00:00:10.216,0.00207087420858443,0,
00:00:10.22,-0.00615778937935829,0,
00:00:10.224,-0.00316726067103446,0,
00:00:10.228,0.00327780307270586,0,
00:00:10.232,0.0053810765966773,0,
00:00:10.236,-0.000833330443128943,0,
00:00:10.24,-0.00656024878844619,0,
00:00:10.244,0.00433026207610965,0,
00:00:10.248,0.00506158452481031,0,
00:00:10.252,-0.00678211776539683,0,
00:00:10.256,-0.00443232292309403,0,
00:00:10.26,0.00265067489817739,0,
00:00:10.264,0.00761990481987596,0,
00:00:10.268,-0.0022272530477494,0,
00:00:10.272,-0.00555998086929321,0,
00:00:10.276,-0.00167383812367916,0,
00:00:10.28,0.00821708515286446,0,
00:00:10.284,0.00132716307416558,0,
00:00:10.288,-0.00884153321385384,0,
00:00:10.292,-0.00145083339884877,0,
00:00:10.296,0.00704138400033116,0,
00:00:10.3,0.0037755889352411,0,
00:00:10.304,-0.00520575419068336,0,
00:00:10.308,-0.00361363915726542,0,
00:00:10.312,0.00421268073841929,0,
00:00:10.316,0.00241130101494491,0,
00:00:10.32,-0.00496151717379689,0,
00:00:10.324,-0.00252911052666605,0,
00:00:10.328,0.00528940418735147,0,
00:00:10.332,0.0029901375528425,0,
00:00:10.336,-0.00494250794872642,0,
00:00:10.34,-0.00285660452209413,0,
00:00:10.344,0.00489467708393931,0,
00:00:10.348,0.00272340606898069,0,
00:00:10.352,-0.00294484361074865,0,
00:00:10.356,-0.00684218294918537,0,
00:00:10.36,0.00327354483306408,0,
00:00:10.364,0.00834144558757544,0,
00:00:10.368,-0.00221153255552053,0,
00:00:10.372,-0.00812779180705547,0,
00:00:10.376,0.0018229796551168,0,
00:00:10.38,0.00549613405019045,0,
00:00:10.384,0.00183242280036211,0,
00:00:10.388,-0.00594831071794033,0,
00:00:10.392,-0.00319595611654222,0,
00:00:10.396,0.00511895958334208,0,
00:00:10.4,0.00317330681718886,0,
00:00:10.404,-0.00464520743116736,0,
00:00:10.408,-0.00263052666559815,0,
00:00:10.412,0.00497597362846136,0,
00:00:10.416,0.00268204673193395,0,
00:00:10.42,-0.00511733163148165,0,
00:00:10.424,-0.0028791616205126,0,
00:00:10.428,0.00497066928073764,0,
00:00:10.432,0.00282439449802041,0,
00:00:10.436,-0.00494835013523698,0,
00:00:10.44,-0.0027666047681123,0,
00:00:10.444,0.00292629958130419,0,
00:00:10.448,0.00684600556269288,0,
00:00:10.452,-0.00533407367765903,0,
00:00:10.456,-0.0042749629355967,0,
00:00:10.46,0.00188709958456457,0,
00:00:10.464,0.00666401209309697,0,
00:00:10.468,-0.00284651177935302,0,
00:00:10.472,-0.00568609079346061,0,
00:00:10.476,0.000636779819615185,0,
00:00:10.48,0.00452063139528036,0,
00:00:10.484,0.00193725246936083,0,
00:00:10.488,-0.00726234586909413,0,
00:00:10.492,0.00161535385996103,0,
00:00:10.496,0.00515039265155792,0,
00:00:10.5,0.00163745391182601,0,
00:00:10.504,-0.0059873191639781,0,
00:00:10.508,-0.00315995188429952,0,
00:00:10.512,0.00515753170475364,0,
00:00:10.516,0.00318115786649287,0,
00:00:10.52,-0.00674263946712017,0,
00:00:10.524,-0.000688576663378626,0,
00:00:10.528,0.00659059872850776,0,
00:00:10.532,0.00492219254374504,0,
00:00:10.536,-0.00793411117047071,0,
00:00:10.54,-0.00553993741050363,0,
00:00:10.544,0.00209685857407749,0,
00:00:10.548,0.0076424484141171,0,
00:00:10.552,-0.00395179027691484,0,
00:00:10.556,-0.00319417146965861,0,
00:00:10.56,0.00228750798851252,0,
00:00:10.564,0.00439451774582267,0,
00:00:10.568,-0.00134182430338115,0,
00:00:10.572,-0.00448033818975091,0,
00:00:10.576,-0.0014931436162442,0,
00:00:10.58,0.00771626504138112,0,
00:00:10.584,0.000696646282449365,0,
00:00:10.588,-0.00713568227365613,0,
00:00:10.592,-0.0034382960293442,0,
00:00:10.596,0.00562841026112437,0,
00:00:10.6,0.00388371385633945,0,
00:00:10.604,-0.00416157441213727,0,
00:00:10.608,-0.00251774676144123,0,
00:00:10.612,0.00480500934645534,0,
00:00:10.616,0.00240899436175823,0,
00:00:10.62,-0.00533721223473549,0,
00:00:10.624,-0.00297528062947094,0,
00:00:10.628,0.00498761842027307,0,
00:00:10.632,0.00290005560964346,0,
00:00:10.636,-0.00279505574144423,0,
00:00:10.64,-0.00677236076444387,0,
00:00:10.644,0.0053424509242177,0,
00:00:10.648,0.00424160249531269,0,
00:00:10.652,-0.00193052378017455,0,
00:00:10.656,-0.00461888173595071,0,
00:00:10.66,-0.00121460156515241,0,
00:00:10.664,0.0081015108153224,0,
00:00:10.668,0.000941885460633785,0,
00:00:10.672,-0.00918246991932392,0,
00:00:10.676,-0.00159051059745252,0,
00:00:10.68,0.00917274504899979,0,
00:00:10.684,0.00195534434169531,0,
00:00:10.688,-0.00877267867326736,0,
00:00:10.692,-0.00172999408096075,0,
00:00:10.696,0.00878418982028961,0,
00:00:10.7,0.00160351290833205,0,
00:00:10.704,-0.00894083175808191,0,
00:00:10.708,0.000363685248885304,0,
00:00:10.712,0.0048553328961134,0,
00:00:10.716,0.00414477288722992,0,
00:00:10.72,-0.00936935376375914,0,
00:00:10.724,-0.00231700576841831,0,
00:00:10.728,0.00681076291948557,0,
00:00:10.732,0.00411447649821639,0,
00:00:10.736,-0.0046950476244092,0,
00:00:10.74,-0.00325805833563209,0,
00:00:10.744,0.00222018687054515,0,
00:00:10.748,0.00633307499811053,0,
00:00:10.752,-0.00550213782116771,0,
00:00:10.756,-0.0041622924618423,0,
00:00:10.76,0.00211907550692558,0,
00:00:10.764,0.00686771841719747,0,
00:00:10.768,-0.00274620205163956,0,
00:00:10.772,-0.00776490941643715,0,
00:00:10.776,0.00254997005686164,0,
00:00:10.78,0.00816844217479229,0,
00:00:10.784,-0.00198137713596225,0,
00:00:10.788,-0.00570657616481185,0,
00:00:10.792,9.12646210053936E-05,0,
00:00:10.796,0.00391974160447717,0,
00:00:10.8,0.00158116477541626,0,
00:00:10.804,-0.00523339910432696,0,
00:00:10.808,-0.000198390815057792,0,
00:00:10.812,0.00165030988864601,0,
00:00:10.816,0.00567018985748291,0,
00:00:10.82,-0.00542127946391702,0,
00:00:10.824,-0.00362456473521888,0,
00:00:10.828,0.00262800510972738,0,
00:00:10.832,0.00707038352265954,0,
00:00:10.836,-0.00493409065529704,0,
00:00:10.84,-0.00398931698873639,0,
00:00:10.844,0.00195037457160652,0,
00:00:10.848,0.00655094161629677,0,
00:00:10.852,-0.00509961228817701,0,
00:00:10.856,-0.00385384517721832,0,
00:00:10.86,0.00221552909351885,0,
00:00:10.864,0.00470768241211772,0,
00:00:10.868,-0.000932779104914516,0,
00:00:10.872,-0.00418868660926819,0,
00:00:10.876,-0.00139458908233792,0,
00:00:10.88,0.00765979988500476,0,
00:00:10.884,-0.0015019770944491,0,
00:00:10.888,-0.00526928575709462,0,
00:00:10.892,0.000225495474296622,0,
00:00:10.896,0.00175560486968607,0,
00:00:10.9,0.00340729905292392,0,
00:00:10.904,-0.00368677382357419,0,
00:00:10.908,-0.00210462184622884,0,
00:00:10.912,0.00491397874429822,0,
00:00:10.916,0.00230555725283921,0,
00:00:10.92,-0.00341328768990934,0,
00:00:10.924,-0.00504029216244817,0,
00:00:10.928,0.00334625924006104,0,
00:00:10.932,0.00278440886177123,0,
00:00:10.936,-0.00187800556886941,0,
00:00:10.94,-0.00361744570545852,0,
00:00:10.944,0.00193848146591336,0,
00:00:10.948,0.00464569637551904,0,
00:00:10.952,-0.000788743665907532,0,
00:00:10.956,-0.00402738247066736,0,
00:00:10.96,0.000734304427169263,0,
00:00:10.964,0.00354126864112914,0,
00:00:10.968,0.000778382353018969,0,
00:00:10.972,-0.00797450635582209,0,
00:00:10.976,0.00151182455010712,0,
00:00:10.98,0.00547218648716807,0,
00:00:10.984,0.00208267220295966,0,
00:00:10.988,-0.0056552398018539,0,
00:00:10.992,-0.00303430086933076,0,
00:00:10.996,0.00510927755385637,0,
00:00:11,0.00512787792831659,0,
00:00:11.004,-0.00883886869996786,0,
00:00:11.008,-0.00239488435909152,0,
00:00:11.012,0.00640997709706426,0,
00:00:11.016,0.00372256152331829,0,
00:00:11.02,-0.00489047262817621,0,
00:00:11.024,-0.0032398784533143,0,
00:00:11.028,0.0023634834215045,0,
00:00:11.032,0.0044160382822156,0,
00:00:11.036,-0.001349828671664,0,
00:00:11.04,-0.0044709057547152,0,
00:00:11.044,0.000623534433543682,0,
00:00:11.048,0.00372246839106083,0,
00:00:11.052,-0.000995360431261361,0,
00:00:11.056,-0.00366671057417989,0,
00:00:11.06,-0.00077135005267337,0,
00:00:11.064,0.00805583875626326,0,
00:00:11.068,0.000653830473311245,0,
00:00:11.072,-0.0073911864310503,0,
00:00:11.076,-0.00371216284111142,0,
00:00:11.08,0.00545979104936123,0,
00:00:11.084,0.00384844047948718,0,
00:00:11.088,-0.00410390738397837,0,
00:00:11.092,-0.00243052723817527,0,
00:00:11.096,0.00487206364050508,0,
00:00:11.1,0.00243547442369163,0,
00:00:11.104,-0.00534582044929266,0,
00:00:11.108,-0.00300070270895958,0,
00:00:11.112,0.00288750720210373,0,
00:00:11.116,0.00693791825324297,0,
00:00:11.12,-0.00520518096163869,0,
00:00:11.124,-0.00417975010350347,0,
00:00:11.128,0.00399754475802183,0,
00:00:11.132,0.0025973035953939,0,
00:00:11.136,-0.00462729949504137,0,
00:00:11.14,-0.00228086300194263,0,
00:00:11.144,0.00328044127672911,0,
00:00:11.148,0.00695790164172649,0,
00:00:11.152,-0.00541933160275221,0,
00:00:11.156,-0.00444256234914064,0,
00:00:11.16,0.00381751591339707,0,
00:00:11.164,0.00254238513298333,0,
00:00:11.168,-0.00043409489444457,0,
00:00:11.172,-0.00822708941996098,0,
00:00:11.176,0.00203999108634889,0,
00:00:11.18,0.00620212778449059,0,
00:00:11.184,0.00256713922135532,0,
00:00:11.188,-0.00763651635497808,0,
00:00:11.192,0.000819683424197137,0,
00:00:11.196,0.00448111444711685,0,
00:00:11.2,0.00135625258553773,0,
00:00:11.204,-0.00590395694598556,0,
00:00:11.208,-0.00289017613977194,0,
00:00:11.212,0.00542471185326576,0,
00:00:11.216,0.00333383330143988,0,
00:00:11.22,-0.00464610196650028,0,
00:00:11.224,-0.00272904662415385,0,
00:00:11.228,0.00278537371195853,0,
00:00:11.232,0.00665756734088063,0,
00:00:11.236,-0.00547092733904719,0,
00:00:11.24,-0.00639922264963388,0,
00:00:11.244,0.00388628779910505,0,
00:00:11.248,0.00836196355521679,0,
00:00:11.252,-0.00261881644837558,0,
00:00:11.256,-0.00650297570973635,0,
00:00:11.26,-0.00039059785194695,0,
00:00:11.264,0.00387525325641036,0,
00:00:11.268,-0.000237454078160226,0,
00:00:11.272,-0.00292152911424637,0,
00:00:11.276,-0.000387738517019898,0,
00:00:11.28,0.00804205983877182,0,
00:00:11.284,0.000402333127567545,0,
00:00:11.288,-0.00767894694581628,0,
00:00:11.292,-0.00389970163814723,0,
00:00:11.296,0.00541066378355026,0,
00:00:11.3,0.00390117638744414,0,
00:00:11.304,-0.00609002681449056,0,
00:00:11.308,0.00169336376711726,0,
00:00:11.312,0.00457047950476408,0,
00:00:11.316,0.000964543549343944,0,
00:00:11.32,-0.00639096321538091,0,
00:00:11.324,-0.00321143725886941,0,
00:00:11.328,0.00326956645585597,0,
00:00:11.332,0.00748458597809076,0,
00:00:11.336,-0.00481632258743048,0,
00:00:11.34,-0.00406337156891823,0,
00:00:11.344,0.00389716541394591,0,
00:00:11.348,0.00240961532108486,0,
00:00:11.352,-0.00271124811843038,0,
00:00:11.356,-0.00433155614882708,0,
00:00:11.36,-0.000431222404586151,0,
00:00:11.364,0.00673157628625631,0,
00:00:11.368,0.00324786268174648,0,
00:00:11.372,-0.00551223894581199,0,
00:00:11.376,-0.00157037156168371,0,
00:00:11.38,0.00236312113702297,0,
00:00:11.384,0.00091643602354452,0,
00:00:11.388,-0.00505378609523177,0,
00:00:11.392,-0.00168112083338201,0,
00:00:11.396,0.00627027032896876,0,
00:00:11.4,0.00356217403896153,0,
00:00:11.404,-0.00490164570510387,0,
00:00:11.408,-0.00317066605202854,0,
00:00:11.412,0.00449451850727201,0,
00:00:11.416,0.00243880366906524,0,
00:00:11.42,-0.00511771067976952,0,
00:00:11.424,-0.00273752096109092,0,
00:00:11.428,0.00513457925990224,0,
00:00:11.432,0.00293100881390274,0,
00:00:11.436,-0.00492097390815616,0,
00:00:11.44,-0.00279728951863945,0,
00:00:11.444,0.00287485937587917,0,
00:00:11.448,0.00680453144013882,0,
00:00:11.452,-0.00327612040564418,0,
00:00:11.456,-0.00832240469753742,0,
00:00:11.46,0.0022350347135216,0,
00:00:11.464,0.0060680266469717,0,
00:00:11.468,0.00223288033157587,0,
00:00:11.472,-0.00790906418114901,0,
00:00:11.476,0.000746421690564603,0,
00:00:11.48,0.0066649210639298,0,
00:00:11.484,-0.0025078731123358,0,
00:00:11.488,-0.00540807098150253,0,
00:00:11.492,-0.00134228833485395,0,
00:00:11.496,0.00644684908911586,0,
00:00:11.5,0.00347352889366448,0,
00:00:11.504,-0.00509667722508311,0,
00:00:11.508,-0.0033133584074676,0,
00:00:11.512,0.00239304360002279,0,
00:00:11.516,0.00655915401875973,0,
00:00:11.52,-0.00534778600558639,0,
00:00:11.524,-0.0041199759580195,0,
00:00:11.528,0.00207560486160219,0,
00:00:11.532,0.00679173599928617,0,
00:00:11.536,-0.004884775262326,0,
00:00:11.54,-0.00374207459390163,0,
00:00:11.544,0.0042964918538928,0,
00:00:11.548,0.00267350813373923,0,
00:00:11.552,-0.00264575541950762,0,
00:00:11.556,-0.00441329507157207,0,
00:00:11.56,0.00151039741467685,0,
00:00:11.564,0.00257270061410964,0,
00:00:11.568,0.00353489466942847,0,
00:00:11.572,-0.00611346168443561,0,
00:00:11.576,0.00146281102206558,0,
00:00:11.58,0.00630426965653896,0,
00:00:11.584,-0.00333256460726261,0,
00:00:11.588,-0.00610903650522232,0,
00:00:11.592,-0.00163576053455472,0,
00:00:11.596,0.00861473008990288,0,
00:00:11.6,-0.00028826977359131,0,
00:00:11.604,-0.00447773979976773,0,
00:00:11.608,-0.00168534100521356,0,
00:00:11.612,0.00551062589511275,0,
00:00:11.616,0.00262325257062912,0,
00:00:11.62,-0.00342920119874179,0,
00:00:11.624,-0.00524638686329126,0,
00:00:11.628,0.00312341586686671,0,
00:00:11.632,0.00472901435568929,0,
00:00:11.636,-0.00594653701409698,0,
00:00:11.64,-0.0053012752905488,0,
00:00:11.644,0.00545779848471284,0,
00:00:11.648,0.00736489193513989,0,
00:00:11.652,-0.000406553037464619,0,
00:00:11.656,-0.00527729885652661,0,
00:00:11.66,-0.000865749549120665,0,
00:00:11.664,0.00250677950680256,0,
00:00:11.668,-0.00149779522325844,0,
00:00:11.672,-0.0035159457474947,0,
00:00:11.676,-0.00029224090394564,0,
00:00:11.68,0.00852652452886105,0,
00:00:11.684,-0.00115608947817236,0,
00:00:11.688,-0.00538315949961543,0,
00:00:11.692,-0.00218759058043361,0,
00:00:11.696,0.00548200728371739,0,
00:00:11.7,0.0028955047018826,0,
00:00:11.704,-0.00516834575682878,0,
00:00:11.708,-0.000963407568633556,0,
00:00:11.712,0.002861890476197,0,
00:00:11.716,0.00113569013774395,0,
00:00:11.72,-0.00301788467913866,0,
00:00:11.724,-0.00590739818289876,0,
00:00:11.728,0.00434826547279954,0,
00:00:11.732,0.00897314585745335,0,
00:00:11.736,-0.00423171417787671,0,
00:00:11.74,-0.00440844753757119,0,
00:00:11.744,0.00106047536246479,0,
00:00:11.748,0.00579903554171324,0,
00:00:11.752,-0.00334546365775168,0,
00:00:11.756,-0.00574424676597118,0,
00:00:11.76,-0.00120710558257997,0,
00:00:11.764,0.008877357468009,0,
00:00:11.768,-0.000252671423368156,0,
00:00:11.772,-0.00460116239264607,0,
00:00:11.776,-0.00185467931441963,0,
00:00:11.78,0.00538434274494648,0,
00:00:11.784,0.00465098163112998,0,
00:00:11.788,-0.00953816995024681,0,
00:00:11.792,-0.00288910092785954,0,
00:00:11.796,0.00627622660249472,0,
00:00:11.8,0.00387446512468159,0,
00:00:11.804,-0.00255180476233363,0,
00:00:11.808,-0.00499604921787977,0,
00:00:11.812,0.0028984141536057,0,
00:00:11.816,0.00225302297621965,0,
00:00:11.82,-0.00429626274853945,0,
00:00:11.824,-0.00172119017224759,0,
00:00:11.828,0.00369252823293209,0,
00:00:11.832,0.0070755728520453,0,
00:00:11.836,-0.00554295117035508,0,
00:00:11.84,-0.00466377334669232,0,
00:00:11.844,0.00155409483704716,0,
00:00:11.848,0.00442854873836041,0,
00:00:11.852,-0.000861676351632923,0,
00:00:11.856,-0.00186403631232679,0,
00:00:11.86,-0.00312239001505077,0,
00:00:11.864,0.0040830229409039,0,
00:00:11.868,0.00239048688672483,0,
00:00:11.872,-0.00689679756760597,0,
00:00:11.876,0.00168198847677559,0,
00:00:11.88,0.00502587808296084,0,
00:00:11.884,0.00148600968532264,0,
00:00:11.888,-0.00813998561352491,0,
00:00:11.892,-0.00116939528379589,0,
00:00:11.896,0.00687028933316469,0,
00:00:11.9,0.0034347721375525,0,
00:00:11.904,-0.00546093331649899,0,
00:00:11.908,-0.00575534719973803,0,
00:00:11.912,0.00627880357205868,0,
00:00:11.916,0.00628176098689437,0,
00:00:11.92,-0.00663235830143094,0,
00:00:11.924,-0.00703001208603382,0,
00:00:11.928,0.00605500536039472,0,
00:00:11.932,0.00480374973267317,0,
00:00:11.936,-0.00178769486956298,0,
00:00:11.94,-0.00684598786756396,0,
00:00:11.944,0.00468526221811771,0,
00:00:11.948,0.00564432609826326,0,
00:00:11.952,-0.00426439009606838,0,
00:00:11.956,-0.00833603367209435,0,
00:00:11.96,0.00288111041299999,0,
00:00:11.964,0.0088718431070447,0,
00:00:11.968,-0.0013973779277876,0,
00:00:11.972,-0.0054715252481401,0,
00:00:11.976,-0.00207187607884407,0,
00:00:11.98,0.00772330211475492,0,
00:00:11.984,-0.00106704724021256,0,
00:00:11.988,-0.00485634710639715,0,
00:00:11.992,0.000409182510338724,0,
00:00:11.996,0.00377904786728323,0,
00:00:12,0.00125228555407375,0,
00:00:12.004,-0.00758693320676684,0,
00:00:12.008,-0.000414021371398121,0,
00:00:12.012,0.0073802974075079,0,
00:00:12.016,0.00355174113065004,0,
00:00:12.02,-0.00356667209416628,0,
00:00:12.024,-0.00594256119802594,0,
00:00:12.028,0.000355075258994475,0,
00:00:12.032,0.00426229601725936,0,
00:00:12.036,-0.000254702841630206,0,
00:00:12.04,-0.00316006224602461,0,
00:00:12.044,0.00143584690522403,0,
00:00:12.048,0.00384922744706273,0,
00:00:12.052,-0.00135036360006779,0,
00:00:12.056,-0.00624016765505075,0,
00:00:12.06,0.00290636881254613,0,
00:00:12.064,0.00550409592688084,0,
00:00:12.068,0.00121691380627453,0,
00:00:12.072,-0.00870043598115444,0,
00:00:12.076,0.000466926925582811,0,
00:00:12.08,0.00682927016168833,0,
00:00:12.084,-0.00214187079109252,0,
00:00:12.088,-0.00507552782073617,0,
00:00:12.092,-0.00116981018800288,0,
00:00:12.096,0.00645241374149919,0,
00:00:12.1,0.00337925832718611,0,
00:00:12.104,-0.00520886480808258,0,
00:00:12.108,-0.00338789448142052,0,
00:00:12.112,0.00444827554747462,0,
00:00:12.116,0.0025278739631176,0,
00:00:12.12,-0.00497960345819592,0,
00:00:12.124,-0.00470202881842852,0,
00:00:12.128,0.00715924892574549,0,
00:00:12.132,0.00664130644872785,0,
00:00:12.136,-0.00675668194890022,0,
00:00:12.14,-0.00532090803608298,0,
00:00:12.144,0.00164716842118651,0,
00:00:12.148,0.00701279379427433,0,
00:00:12.152,-0.00439700623974204,0,
00:00:12.156,-0.00332715827971697,0,
00:00:12.16,0.00240163947455585,0,
00:00:12.164,0.00668357592076063,0,
00:00:12.168,-0.00313590257428586,0,
00:00:12.172,-0.00811290089040995,0,
00:00:12.176,0.00237360200844705,0,
00:00:12.18,0.00609164731577039,0,
00:00:12.184,0.00217151246033609,0,
00:00:12.188,-0.00592165999114513,0,
00:00:12.192,-0.00337244872935116,0,
00:00:12.196,0.00697102816775441,0,
00:00:12.2,0.00104099721647799,0,
00:00:12.204,-0.00633839750662446,0,
00:00:12.208,-0.00485077826306224,0,
00:00:12.212,0.00786156859248877,0,
00:00:12.216,0.00748651754111052,0,
00:00:12.22,-0.00625633867457509,0,
00:00:12.224,-0.00528359459713101,0,
00:00:12.228,0.00137092103250325,0,
00:00:12.232,0.00665839714929461,0,
00:00:12.236,-0.00257507176138461,0,
00:00:12.24,-0.00746657513082027,0,
00:00:12.244,0.00278062839061022,0,
00:00:12.248,0.00825291592627764,0,
00:00:12.252,-0.00202227081172168,0,
00:00:12.256,-0.00580473290756345,0,
00:00:12.26,1.23979577892896E-06,0,
00:00:12.264,0.0038729989901185,0,
00:00:12.268,-0.000495973275974393,0,
00:00:12.272,-0.00530806230381131,0,
00:00:12.276,0.00552537431940436,0,
00:00:12.28,0.00359015492722392,0,
00:00:12.284,-0.00275887106545269,0,
00:00:12.288,-0.00516553083434701,0,
00:00:12.292,-0.00134252209682018,0,
00:00:12.296,0.00828394014388323,0,
00:00:12.3,0.00123253208585083,0,
00:00:12.304,-0.00687543302774429,0,
00:00:12.308,-0.00346785224974155,0,
00:00:12.312,0.00335731077939272,0,
00:00:12.316,0.00772222504019737,0,
00:00:12.32,-0.004627984482795,0,
00:00:12.324,-0.0040128412656486,0,
00:00:12.328,0.00175239739473909,0,
00:00:12.332,0.00634240731596947,0,
00:00:12.336,-0.00314507610164583,0,
00:00:12.34,-0.00792103447020054,0,
00:00:12.344,0.00260206498205662,0,
00:00:12.348,0.0062440000474453,0,
00:00:12.352,0.00221414351835847,0,
00:00:12.356,-0.00803722254931927,0,
00:00:12.36,0.000607768772169948,0,
00:00:12.364,0.0065791136585176,0,
00:00:12.368,-0.00252608139999211,0,
00:00:12.372,-0.00537894107401371,0,
00:00:12.376,-0.00129796436522156,0,
00:00:12.38,0.00648104352876544,0,
00:00:12.384,0.00348712713457644,0,
00:00:12.388,-0.00510095618665218,0,
00:00:12.392,-0.00332625000737607,0,
00:00:12.396,0.00445643439888954,0,
00:00:12.4,0.00250127818435431,0,
00:00:12.404,-0.00501508545130491,0,
00:00:12.408,-0.00265167909674346,0,
00:00:12.412,0.00517530040815473,0,
00:00:12.416,0.00292839133180678,0,
00:00:12.42,-0.00287190289236605,0,
00:00:12.424,-0.00480194389820099,0,
00:00:12.428,0.0012145156506449,0,
00:00:12.432,0.0045476951636374,0,
00:00:12.436,-0.000452020642114803,0,
00:00:12.44,-0.00564340781420469,0,
00:00:12.444,0.00304986699484289,0,
00:00:12.448,0.00738563807681203,0,
00:00:12.452,-0.00314772292040288,0,
00:00:12.456,-0.00654217740520835,0,
00:00:12.46,-0.00222632242366672,0,
00:00:12.464,0.00612923130393028,0,
00:00:12.468,0.00364800868555903,0,
00:00:12.472,-0.00469665322452784,0,
00:00:12.476,-0.000871632364578545,0,
00:00:12.48,0.00268468889407814,0,
00:00:12.484,0.000873661192599684,0,
00:00:12.488,-0.00529434019699693,0,
00:00:12.492,-0.00193549145478755,0,
00:00:12.496,0.00404067477211356,0,
00:00:12.5,0.00758411129936576,0,
00:00:12.504,-0.00517872534692287,0,
00:00:12.508,-0.00662947073578835,0,
00:00:12.512,0.00551192089915276,0,
00:00:12.516,0.00599525356665254,0,
00:00:12.52,-0.00652791513130069,0,
00:00:12.524,-0.00469754124060273,0,
00:00:12.528,0.00428993441164494,0,
00:00:12.532,0.00323906354606152,0,
00:00:12.536,-0.00408220291137695,0,
00:00:12.54,-0.00204931292682886,0,
00:00:12.544,0.00321443215943873,0,
00:00:12.548,0.00673822127282619,0,
00:00:12.552,-0.00356257357634604,0,
00:00:12.556,-0.00861984305083752,0,
00:00:12.56,0.00205674930475652,0,
00:00:12.564,0.00811102520674467,0,
00:00:12.568,-0.0017520155524835,0,
00:00:12.572,-0.00748012168332934,0,
00:00:12.576,0.00228327070362866,0,
00:00:12.58,0.00563600938767195,0,
00:00:12.584,-0.000358342309482396,0,
00:00:12.588,-0.00211549806408584,0,
00:00:12.592,-0.00371576938778162,0,
00:00:12.596,0.00148973567411304,0,
00:00:12.6,0.00621137488633394,0,
00:00:12.604,-0.00510390149429441,0,
00:00:12.608,-0.00570944417268038,0,
00:00:12.612,0.00652051530778408,0,
00:00:12.616,0.00453028874471784,0,
00:00:12.62,-0.00237322342582047,0,
00:00:12.624,-0.00735138449817896,0,
00:00:12.628,0.00445316266268492,0,
00:00:12.632,0.00360181508585811,0,
00:00:12.636,-0.00211178115569055,0,
00:00:12.64,-0.00443138601258397,0,
00:00:12.644,-0.000880191568285227,0,
00:00:12.648,0.00838361214846373,0,
00:00:12.652,-0.00100137945264578,0,
00:00:12.656,-0.00514252716675401,0,
00:00:12.66,-0.00201402301900089,0,
00:00:12.664,0.00760999973863363,0,
00:00:12.668,-0.00120041216723621,0,
00:00:12.672,-0.00491890870034695,0,
00:00:12.676,-0.00164538936223835,0,
00:00:12.68,0.00789938773959875,0,
00:00:12.684,0.000990382046438754,0,
00:00:12.688,-0.00693263998255134,0,
00:00:12.692,-0.0034000538289547,0,
00:00:12.696,0.00553850224241614,0,
00:00:12.7,0.00374930212274194,0,
00:00:12.704,-0.00426812656223774,0,
00:00:12.708,-0.00463961297646165,0,
00:00:12.712,0.00678884470835328,0,
00:00:12.716,0.00408768560737371,0,
00:00:12.72,-0.00512281199917197,0,
00:00:12.724,-0.0058720326051116,0,
00:00:12.728,0.00593862868845463,0,
00:00:12.732,0.00597844179719687,0,
00:00:12.736,-0.00676296977326274,0,
00:00:12.74,-0.00491392845287919,0,
00:00:12.744,0.00213448400609195,0,
00:00:12.748,0.0073438067920506,0,
00:00:12.752,-0.00222144718281925,0,
00:00:12.756,-0.00538004469126463,0,
00:00:12.76,-0.0014640090521425,0,
00:00:12.764,0.00835639424622059,0,
00:00:12.768,-0.000709693180397153,0,
00:00:12.772,-0.00275101140141487,0,
00:00:12.776,-0.00382423587143421,0,
00:00:12.78,0.00388067937456071,0,
00:00:12.784,0.00255463947542012,0,
00:00:12.788,-0.00246867001987994,0,
00:00:12.792,-0.00622193282470107,0,
00:00:12.796,0.00574430683627725,0,
00:00:12.8,0.00435185385867953,0,
00:00:12.804,-0.00413289992138743,0,
00:00:12.808,-0.00286399014294147,0,
00:00:12.812,0.00439398363232613,0,
00:00:12.816,0.00216554920189083,0,
00:00:12.82,-0.00535355415195227,0,
00:00:12.824,-0.00283639039844275,0,
00:00:12.828,0.005165861453861,0,
00:00:12.832,0.00302863237448037,0,
00:00:12.836,-0.00274914037436247,0,
00:00:12.84,-0.00471816258504987,0,
00:00:12.844,-0.000836074759718031,0,
00:00:12.848,0.00650316383689642,0,
00:00:12.852,0.00115234847180545,0,
00:00:12.856,-0.00134673714637756,0,
00:00:12.86,-0.00175837788265198,0,
00:00:12.864,0.000999631127342582,0,
00:00:12.868,-0.00214662845246494,0,
00:00:12.872,-0.00328517542220652,0,
00:00:12.876,0.00238954834640026,0,
00:00:12.88,0.0049825282767415,0,
00:00:12.884,0.00144158722832799,0,
00:00:12.888,-0.00599731737747788,0,
00:00:12.892,-0.00305297784507275,0,
00:00:12.896,0.00526392180472612,0,
00:00:12.9,0.00322003243491054,0,
00:00:12.904,-0.00469815917313099,0,
00:00:12.908,-0.00480623496696353,0,
00:00:12.912,0.0068616010248661,0,
00:00:12.916,0.00635260064154863,0,
00:00:12.92,-0.0069184573367238,0,
00:00:12.924,-0.0074155037291348,0,
00:00:12.928,0.00577098410576582,0,
00:00:12.932,0.0046987715177238,0,
00:00:12.936,-0.00174357579089701,0,
00:00:12.94,-0.00465795490890741,0,
00:00:12.944,-0.00133767898660153,0,
00:00:12.948,0.00800743978470564,0,
00:00:12.952,-0.00115509808529168,0,
00:00:12.956,-0.00509269628673792,0,
00:00:12.96,0.000212857703445479,0,
00:00:12.964,0.0037058915477246,0,
00:00:12.968,0.00129068654496223,0,
00:00:12.972,-0.00749602448195219,0,
00:00:12.976,-0.000329919042997062,0,
00:00:12.98,0.0095005976036191,0,
00:00:12.984,0.00157878920435905,0,
00:00:12.988,-0.00730780232697725,0,
00:00:12.992,-0.00417262502014637,0,
00:00:12.996,0.00489648431539536,0,
00:00:13,0.00348608219064772,0,
00:00:13.004,-0.00417993403971195,0,
00:00:13.008,-0.00437477324157953,0,
00:00:13.012,0.00704749720171094,0,
00:00:13.016,0.00630917632952333,0,
00:00:13.02,-0.00708043621852994,0,
00:00:13.024,-0.00550290429964662,0,
00:00:13.028,0.00370127777568996,0,
00:00:13.032,0.00304291606880724,0,
00:00:13.036,-0.00188142235856503,0,
00:00:13.04,-0.00376186170615256,0,
00:00:13.044,0.00180447078309953,0,
00:00:13.048,0.00460045877844095,0,
00:00:13.052,-0.000747135607525706,0,
00:00:13.056,-0.0039446740411222,0,
00:00:13.06,-0.00126643758267164,0,
00:00:13.064,0.00555647956207395,0,
00:00:13.068,0.00242316466756165,0,
00:00:13.072,-0.00574172101914883,0,
00:00:13.076,-0.00340676540508866,0,
00:00:13.08,0.00476091867312789,0,
00:00:13.084,0.00291201774962246,0,
00:00:13.088,-0.00471314555034041,0,
00:00:13.092,-0.00254083797335625,0,
00:00:13.096,0.00512752262875438,0,
00:00:13.1,0.00488432124257088,0,
00:00:13.104,-0.00910932291299105,0,
00:00:13.108,-0.00255100592039526,0,
00:00:13.112,0.00639532553032041,0,
00:00:13.116,0.00380055024288595,0,
00:00:13.12,-0.00479027908295393,0,
00:00:13.124,-0.00316918571479619,0,
00:00:13.128,0.00238670501857996,0,
00:00:13.132,0.00440153060480952,0,
00:00:13.136,-0.00138019607402384,0,
00:00:13.14,-0.0065733096562326,0,
00:00:13.144,0.0025858418084681,0,
00:00:13.148,0.00744081661105156,0,
00:00:13.152,-0.00278543052263558,0,
00:00:13.156,-0.00614230800420046,0,
00:00:13.16,-0.00197021989151835,0,
00:00:13.164,0.00619356287643313,0,
00:00:13.168,0.0035732660908252,0,
00:00:13.172,-0.00482051121070981,0,
00:00:13.176,-0.000971069908700883,0,
00:00:13.18,0.00264216773211956,0,
00:00:13.184,0.00088263483485207,0,
00:00:13.188,-0.00525913806632161,0,
00:00:13.192,-0.00190008745994419,0,
00:00:13.196,0.00406098226085305,0,
00:00:13.2,0.00551108364015818,0,
00:00:13.204,-0.00113631994463503,0,
00:00:13.208,-0.00697440793737769,0,
00:00:13.212,0.0040385345928371,0,
00:00:13.216,0.00289683463051915,0,
00:00:13.22,-0.00266011920757592,0,
00:00:13.224,-0.00463023735210299,0,
00:00:13.228,0.00130117649678141,0,
00:00:13.232,0.00457882788032293,0,
00:00:13.236,-0.000441396550741047,0,
00:00:13.24,-0.00355800939723849,0,
