Elapsed Time,Ch1,BioRadio Event,
00:00:00,1.67100298404694,0,
00:00:00.004,-1.59013450145721,0,
00:00:00.008,-1.32184457778931,0,
00:00:00.012,-0.142515957355499,0,
00:00:00.016,0.67840176820755,0,
00:00:00.02,0.827244520187378,0,
00:00:00.024,0.507604241371155,0,
00:00:00.028,0.0678178369998932,0,
00:00:00.032,-0.246346786618233,0,
00:00:00.036,-0.328829050064087,0,
00:00:00.04,-0.241935223340988,0,
00:00:00.044,-0.0895523801445961,0,
00:00:00.048,0.0352285280823708,0,
00:00:00.052,0.0973262041807175,0,
00:00:00.056,0.0941921770572662,0,
00:00:00.06,0.0405906178057194,0,
00:00:00.064,-0.000141157986945473,0,
00:00:00.068,-0.0245435237884521,0,
00:00:00.072,-0.0285826381295919,0,
00:00:00.076,-0.0167242903262377,0,
00:00:00.08,-0.00910322740674019,0,
00:00:00.084,0.00547794159501791,0,
00:00:00.088,0.0103620905429125,0,
00:00:00.092,0.0103675574064255,0,
00:00:00.096,-0.000666137435473502,0,
00:00:00.1,-0.000618276535533369,0,
00:00:00.104,-0.00159520737361163,0,
00:00:00.108,-0.00193952198605984,0,
00:00:00.112,-0.00143092381767929,0,
00:00:00.116,-0.000525652605574578,0,
00:00:00.12,-0.00182457070332021,0,
00:00:00.124,0.0025938234757632,0,
00:00:00.128,0.00222343695349991,0,
00:00:00.132,0.000494591309688985,0,
00:00:00.136,0.00126357597764581,0,
00:00:00.14,-0.00315181887708604,0,
00:00:00.144,-0.00246186228469014,0,
00:00:00.148,-0.0024659070186317,0,
00:00:00.152,0.0030779130756855,0,
00:00:00.156,0.00310788885690272,0,
00:00:00.16,0.00116786279249936,0,
00:00:00.164,0.00147695397026837,0,
00:00:00.168,-0.00540225300937891,0,
00:00:00.172,-0.000826967705506831,0,
00:00:00.176,0.000954559305682778,0,
00:00:00.18,0.0032085464335978,0,
00:00:00.184,-0.00134874344803393,0,
00:00:00.188,-0.00158909324090928,0,
00:00:00.192,-0.000461976218502969,0,
00:00:00.196,0.000502645038068295,0,
00:00:00.2,0.00081471010344103,0,
00:00:00.204,-0.00148491212166846,0,
00:00:00.208,0.00421503512188792,0,
00:00:00.212,0.00156132003758103,0,
00:00:00.216,-0.00375834759324789,0,
00:00:00.22,-0.00500487117096782,0,
00:00:00.224,0.00148827792145312,0,
00:00:00.228,0.00289286463521421,0,
00:00:00.232,0.00183931062929332,0,
00:00:00.236,0.000263131136307493,0,
00:00:00.24,-0.00285688391886652,0,
00:00:00.244,0.00302467774599791,0,
00:00:00.248,-0.00103349424898624,0,
00:00:00.252,-0.00165468268096447,0,
00:00:00.256,-0.00081892340676859,0,
00:00:00.26,0.000163153410539962,0,
00:00:00.264,0.000683885358739644,0,
00:00:00.268,-0.0013982750242576,0,
00:00:00.272,0.00441482430323958,0,
00:00:00.276,-0.00032243732130155,0,
00:00:00.28,-0.00167264079209417,0,
00:00:00.284,-0.00126968731638044,0,
00:00:00.288,-0.00242959032766521,0,
00:00:00.292,0.00232278881594539,0,
00:00:00.296,0.00223223445937037,0,
00:00:00.3,0.00271216314285994,0,
00:00:00.304,-0.0026456827763468,0,
00:00:00.308,-0.000670783978421241,0,
00:00:00.312,-0.00505198678001761,0,
00:00:00.316,0.000914427568204701,0,
00:00:00.32,0.00269820378161967,0,
00:00:00.324,0.00205403985455632,0,
00:00:00.328,0.000618705991655588,0,
00:00:00.332,-0.000524976989254355,0,
00:00:00.336,-0.000963022408541292,0,
00:00:00.34,-0.000792132341302931,0,
00:00:00.344,0.00173462647944689,0,
00:00:00.348,-0.00397535972297192,0,
00:00:00.352,0.000623777625150979,0,
00:00:00.356,0.00175793410744518,0,
00:00:00.36,-0.000886818976141512,0,
00:00:00.364,0.00426037330180407,0,
00:00:00.368,0.00127469701692462,0,
00:00:00.372,-0.00408520083874464,0,
00:00:00.376,-0.00311400042846799,0,
00:00:00.38,-0.000494053238071501,0,
00:00:00.384,-0.000716752430889755,0,
00:00:00.388,0.0058462917804718,0,
00:00:00.392,-0.00121135381050408,0,
00:00:00.396,-0.00129002658650279,0,
00:00:00.4,0.00218154559843242,0,
00:00:00.404,0.00720274448394775,0,
00:00:00.408,-0.00879575032740831,0,
00:00:00.412,-0.00657270383089781,0,
00:00:00.416,0.00185750238597393,0,
00:00:00.42,0.00600402103736997,0,
00:00:00.424,0.00281718978658319,0,
00:00:00.428,-0.00504430057480931,0,
00:00:00.432,-0.000689291220624,0,
00:00:00.436,0.000989128951914608,0,
00:00:00.44,-0.00102217891253531,0,
00:00:00.444,0.00243665813468397,0,
00:00:00.448,0.00358701380901039,0,
00:00:00.452,-0.00222178408876061,0,
00:00:00.456,-0.00288912234827876,0,
00:00:00.46,-0.00141603115480393,0,
00:00:00.464,0.000209799633012153,0,
00:00:00.468,-0.00100600032601506,0,
00:00:00.472,0.00512851029634476,0,
00:00:00.476,0.000253991718636826,0,
00:00:00.48,-0.0014369833515957,0,
00:00:00.484,-0.00341764534823596,0,
00:00:00.488,0.00347245531156659,0,
00:00:00.492,-0.000204948417376727,0,
00:00:00.496,-0.000997093738988042,0,
00:00:00.5,-0.000573724741116166,0,
00:00:00.504,4.36029222328216E-05,0,
00:00:00.508,0.000392815767554566,0,
00:00:00.512,0.000406727398512885,0,
00:00:00.516,0.000219321096665226,0,
00:00:00.52,1.76462913259456E-06,0,
00:00:00.524,0.00194196577649564,0,
00:00:00.528,-0.00213462952524424,0,
00:00:00.532,-0.00174940924625844,0,
00:00:00.536,-0.000208491503144614,0,
00:00:00.54,0.000869025010615587,0,
00:00:00.544,0.0010763849131763,0,
00:00:00.548,-0.00140424515120685,0,
00:00:00.552,0.00830317568033934,0,
00:00:00.556,-0.00873864535242319,0,
00:00:00.56,-0.00122086494229734,0,
00:00:00.564,-0.000482252071378753,0,
00:00:00.568,0.00578457489609718,0,
00:00:00.572,0.0025538569316268,0,
00:00:00.576,-0.00356342876330018,0,
00:00:00.58,-0.00326182087883353,0,
00:00:00.584,-0.00095768243772909,0,
00:00:00.588,0.000921400263905525,0,
00:00:00.592,0.00156829319894314,0,
00:00:00.596,0.00119565182831138,0,
00:00:00.6,0.000407756131608039,0,
00:00:00.604,-0.000261124136159197,0,
00:00:00.608,-0.000556872924789786,0,
00:00:00.612,-0.000498160545248538,0,
00:00:00.616,-0.00232857675291598,0,
00:00:00.62,0.00404944550246,0,
00:00:00.624,0.00188825221266598,0,
00:00:00.628,-0.00534669822081923,0,
00:00:00.632,0.00149985065218061,0,
00:00:00.636,-0.00274227024056017,0,
00:00:00.64,0.00379446637816727,0,
00:00:00.644,-0.00190539937466383,0,
00:00:00.648,0.00129569170530885,0,
00:00:00.652,0.00119035271927714,0,
00:00:00.656,0.000137187089421786,0,
00:00:00.66,-0.000646655797027051,0,
00:00:00.664,-0.000816513784229755,0,
00:00:00.668,-0.000530947174411267,0,
00:00:00.672,-0.000107780426333193,0,
00:00:00.676,-0.00187238701619208,0,
00:00:00.68,0.00435832515358925,0,
00:00:00.684,-9.2988891992718E-05,0,
00:00:00.688,-0.00136529724113643,0,
00:00:00.692,-0.00104449701029807,0,
00:00:00.696,0.00180415692739189,0,
00:00:00.7,-0.00373977259732783,0,
00:00:00.704,0.000833804602734745,0,
00:00:00.708,0.00184188620187342,0,
00:00:00.712,0.00322506064549088,0,
00:00:00.716,-0.00186864368151873,0,
00:00:00.72,-0.00220888154581189,0,
00:00:00.724,-0.00295370514504611,0,
00:00:00.728,0.00651005189865828,0,
00:00:00.732,-0.00346480309963226,0,
00:00:00.736,-0.000349836511304602,0,
00:00:00.74,0.000768593046814203,0,
00:00:00.744,0.0007262370781973,0,
00:00:00.748,0.00233033858239651,0,
00:00:00.752,-0.00214401469565928,0,
00:00:00.756,-0.00198940536938608,0,
00:00:00.76,-0.000474333472084254,0,
00:00:00.764,0.000708012434188277,0,
00:00:00.768,0.00104964477941394,0,
00:00:00.772,-0.00133887131232768,0,
00:00:00.776,0.0042437999509275,0,
00:00:00.78,-0.000567734707146883,0,
00:00:00.784,-0.00186179974116385,0,
00:00:00.788,-0.00134701316710562,0,
00:00:00.792,-0.000333223812049255,0,
00:00:00.796,0.000416348688304424,0,
00:00:00.8,0.000657779513858259,0,
00:00:00.804,-0.00157856487203389,0,
00:00:00.808,0.00422775372862816,0,
00:00:00.812,-0.00250312383286655,0,
00:00:00.816,0.000294707453576848,0,
00:00:00.82,0.0004266056639608,0,
00:00:00.824,0.00196737097576261,0,
00:00:00.828,-0.00242289924062788,0,
00:00:00.832,-0.00206420477479696,0,
00:00:00.836,-0.000358451303327456,0,
00:00:00.84,0.000912734831217676,0,
00:00:00.844,0.00123376457486302,0,
00:00:00.848,-0.00123825541231781,0,
00:00:00.852,0.00425571529194713,0,
00:00:00.856,-0.00061153550632298,0,
00:00:00.86,-0.00191898574121296,0,
00:00:00.864,0.000688372936565429,0,
00:00:00.868,-0.00232180510647595,0,
00:00:00.872,-0.00329321390017867,0,
00:00:00.876,0.00454910891130567,0,
00:00:00.88,0.00102176796644926,0,
00:00:00.884,-0.00025338534032926,0,
00:00:00.888,-0.000483633048133925,0,
00:00:00.892,-0.000323547777952626,0,
00:00:00.896,-0.00010481115168659,0,
00:00:00.9,3.61631173291244E-05,0,
00:00:00.904,7.76444430812262E-05,0,
00:00:00.908,-0.00202274182811379,0,
00:00:00.912,0.00405883882194757,0,
00:00:00.916,-0.00243490794673562,0,
00:00:00.92,0.000474396743811667,0,
00:00:00.924,0.000595365010667592,0,
00:00:00.928,-1.80548122443724E-05,0,
00:00:00.932,-0.000441700773080811,0,
00:00:00.936,-0.00046815603855066,0,
00:00:00.94,-0.00023797525500413,0,
00:00:00.944,0.0021073289681226,0,
00:00:00.948,-0.00385631900280714,0,
00:00:00.952,0.00262539251707494,0,
00:00:00.956,-0.000369910121662542,0,
00:00:00.96,-0.00058484572218731,0,
00:00:00.964,-3.04647874145303E-05,0,
00:00:00.968,0.000379610573872924,0,
00:00:00.972,-0.00165097473654896,0,
00:00:00.976,0.00427528657019138,0,
00:00:00.98,-0.000355428637703881,0,
00:00:00.984,-0.00164087605662644,0,
00:00:00.988,-0.00121976225636899,0,
00:00:00.992,0.00175829301588237,0,
00:00:00.996,-0.00161620473954827,0,
00:00:01,-0.00313578406348825,0,
00:00:01.004,0.00224131648428738,0,
00:00:01.008,0.00264308741316199,0,
00:00:01.012,0.00112110248301178,0,
00:00:01.016,0.00167085812427104,0,
00:00:01.02,-0.0030966738704592,0,
00:00:01.024,-0.00266408245079219,0,
00:00:01.028,-0.000669744564220309,0,
00:00:01.032,0.00296756625175476,0,
00:00:01.036,-0.00266755884513259,0,
00:00:01.04,0.00342739792540669,0,
00:00:01.044,-0.000186587945790961,0,
00:00:01.048,-0.00294537493027747,0,
00:00:01.052,0.00149492325726897,0,
00:00:01.056,0.00166228692978621,0,
00:00:01.06,0.000447462749434635,0,
00:00:01.064,-0.000587459129747003,0,
00:00:01.068,-0.000923691550269723,0,
00:00:01.072,-0.000678889686241746,0,
00:00:01.076,-0.00020796614990104,0,
00:00:01.08,0.000178996328031644,0,
00:00:01.084,-0.00173565396107733,0,
00:00:01.088,0.0022690377663821,0,
00:00:01.092,0.00386046781204641,0,
00:00:01.096,-0.00388027401641011,0,
00:00:01.1,-0.000599870691075921,0,
00:00:01.104,0.000336537574185058,0,
00:00:01.108,0.00240132422186434,0,
00:00:01.112,-0.00188671506475657,0,
00:00:01.116,-0.00379359093494713,0,
00:00:01.12,0.00169028888922185,0,
00:00:01.124,0.00242957170121372,0,
00:00:01.128,0.00329531938768923,0,
00:00:01.132,-0.00212988257408142,0,
00:00:01.136,-0.00252635730430484,0,
00:00:01.14,-0.00106950826011598,0,
00:00:01.144,0.000361797923687845,0,
00:00:01.148,0.0010146516142413,0,
00:00:01.152,0.000907899404410273,0,
00:00:01.156,0.000414884620113298,0,
00:00:01.16,-7.60463226470165E-05,0,
00:00:01.164,0.00173264543991536,0,
00:00:01.168,-0.00233306735754013,0,
00:00:01.172,-0.00185699923895299,0,
00:00:01.176,-0.000216932821786031,0,
00:00:01.18,0.000922189268749207,0,
00:00:01.184,0.00114278122782707,0,
00:00:01.188,0.000717186310794204,0,
00:00:01.192,0.000114446447696537,0,
00:00:01.196,-0.00238952878862619,0,
00:00:01.2,0.00153252831660211,0,
00:00:01.204,0.00130799144972116,0,
00:00:01.208,4.77409594168421E-05,0,
00:00:01.212,0.00127829879056662,0,
00:00:01.216,-0.00287518743425608,0,
00:00:01.22,-0.00422719493508339,0,
00:00:01.224,0.00385775952599943,0,
00:00:01.228,0.000815134146250784,0,
00:00:01.232,-6.12499134149402E-05,0,
00:00:01.236,-0.000127440827782266,0,
00:00:01.24,0.00205734116025269,0,
00:00:01.244,-0.00193363556172699,0,
00:00:01.248,-0.00161434081383049,0,
00:00:01.252,-0.00227049761451781,0,
00:00:01.256,0.004841648042202,0,
00:00:01.26,0.000636195414699614,0,
00:00:01.264,-0.00295070954598486,0,
00:00:01.268,0.00309866573661566,0,
00:00:01.272,-0.00288836052641273,0,
00:00:01.276,0.000514349958393723,0,
00:00:01.28,0.000883285189047456,0,
00:00:01.284,0.000269770971499383,0,
00:00:01.288,-0.000291435135295615,0,
00:00:01.292,-0.000470446917461231,0,
00:00:01.296,-0.000332132069161162,0,
00:00:01.3,-7.7429402153939E-05,0,
00:00:01.304,0.0001233899674844,0,
00:00:01.308,0.000197435132577084,0,
00:00:01.312,0.000160318784764968,0,
00:00:01.316,7.15042115189135E-05,0,
00:00:01.32,-1.05709123090492E-05,0,
00:00:01.324,-5.39073953405023E-05,0,
00:00:01.328,-5.61174238100648E-05,0,
00:00:01.332,-3.33516072714701E-05,0,
00:00:01.336,-0.00208152830600739,0,
00:00:01.34,0.00198816414922476,0,
00:00:01.344,0.00373600912280381,0,
00:00:01.348,-0.00178478937596083,0,
00:00:01.352,-0.00455560581758618,0,
00:00:01.356,0.00284425960853696,0,
00:00:01.36,-0.000126513739814982,0,
00:00:01.364,-0.00052401318680495,0,
00:00:01.368,-9.08067377167754E-05,0,
00:00:01.372,0.000305588415358216,0,
00:00:01.376,0.000399862881749868,0,
00:00:01.38,0.00232998048886657,0,
00:00:01.384,-0.00401579914614558,0,
00:00:01.388,0.000210040234378539,0,
00:00:01.392,0.00129378342535347,0,
00:00:01.396,0.000890174647793174,0,
00:00:01.4,0.000133704641484655,0,
00:00:01.404,-0.000380981306079775,0,
00:00:01.408,-0.000500513531733304,0,
00:00:01.412,-0.000336166529450566,0,
00:00:01.416,-8.24644812382758E-05,0,
00:00:01.42,0.000108772932435386,0,
00:00:01.424,0.0022533496376127,0,
00:00:01.428,-0.00390796316787601,0,
00:00:01.432,0.000395407754695043,0,
00:00:01.436,0.00145324983168393,0,
00:00:01.44,0.00304566393606365,0,
00:00:01.444,-0.00391698582097888,0,
00:00:01.448,0.00198247842490673,0,
00:00:01.452,-0.00106362754013389,0,
00:00:01.456,0.00108300801366568,0,
00:00:01.46,-0.00413453578948975,0,
00:00:01.464,0.000897569814696908,0,
00:00:01.468,0.00213783467188478,0,
00:00:01.472,0.00142414122819901,0,
00:00:01.476,0.000226503398153,0,
00:00:01.48,-0.000604459666647017,0,
00:00:01.484,-0.000822549394797534,0,
00:00:01.488,0.00149385258555412,0,
00:00:01.492,-0.00215515960007906,0,
00:00:01.496,-0.00357841490767896,0,
00:00:01.5,0.00206805905327201,0,
00:00:01.504,0.00271654082462192,0,
00:00:01.508,0.00131530500948429,0,
00:00:01.512,-0.000219681664020754,0,
00:00:01.516,-0.00101929786615074,0,
00:00:01.52,-0.00101188698317856,0,
00:00:01.524,-0.000540503941010684,0,
00:00:01.528,-1.2098276783945E-05,0,
00:00:01.532,-0.00176258874125779,0,
00:00:01.536,0.00234947865828872,0,
00:00:01.54,0.00396911893039942,0,
00:00:01.544,-0.00172599940560758,0,
00:00:01.548,-0.0025480305776,0,
00:00:01.552,-0.00339579535648227,0,
00:00:01.556,0.00416696863248944,0,
00:00:01.56,0.000568845018278807,0,
00:00:01.564,-0.00052780396072194,0,
00:00:01.568,-0.000497057742904872,0,
00:00:01.572,-0.000149691113620065,0,
00:00:01.576,0.000120966498798225,0,
00:00:01.58,0.000204069845494814,0,
00:00:01.584,0.000143549885251559,0,
00:00:01.588,3.25544024235569E-05,0,
00:00:01.592,-5.39603861398064E-05,0,
00:00:01.596,-0.00216082343831658,0,
00:00:01.6,0.00190707272849977,0,
00:00:01.604,0.00161236454732716,0,
00:00:01.608,0.000182511023012921,0,
00:00:01.612,0.0033324935939163,0,
00:00:01.616,-0.00702988915145397,0,
00:00:01.62,-0.00192522304132581,0,
00:00:01.624,0.00328425620682538,0,
00:00:01.628,-0.0018933298997581,0,
00:00:01.632,0.00402260571718216,0,
00:00:01.636,1.97817043954274E-05,0,
00:00:01.64,-0.00097902724519372,0,
00:00:01.644,-0.000720885582268238,0,
00:00:01.648,-0.0022635015193373,0,
00:00:01.652,0.00422565639019012,0,
00:00:01.656,-0.00214089197106659,0,
00:00:01.66,0.000686185841914266,0,
00:00:01.664,0.0048014665953815,0,
00:00:01.668,-0.00611474411562085,0,
00:00:01.672,-0.00186785100959241,0,
00:00:01.676,0.000723554228898138,0,
00:00:01.68,0.00158140505664051,0,
00:00:01.684,-0.000825357215944678,0,
00:00:01.688,0.00451195100322366,0,
00:00:01.692,-0.00055021425941959,0,
00:00:01.696,-0.00198801630176604,0,
00:00:01.7,-0.00149563141167164,0,
00:00:01.704,-0.000426790240453556,0,
00:00:01.708,0.00247312663123012,0,
00:00:01.712,-0.00543536245822906,0,
00:00:01.716,0.00493206968531013,0,
00:00:01.72,0.00134707347024232,0,
00:00:01.724,-0.000524085480719805,0,
00:00:01.728,-0.00313133373856544,0,
00:00:01.732,-0.000892849348019809,0,
00:00:01.736,0.00750244874507189,0,
00:00:01.74,-0.00405067298561335,0,
00:00:01.744,-0.00164374674204737,0,
00:00:01.748,0.00177809677552432,0,
00:00:01.752,-0.00163922272622585,0,
00:00:01.756,-0.00115804688539356,0,
00:00:01.76,0.000178883448825218,0,
00:00:01.764,-0.00109321635682136,0,
00:00:01.768,0.00296828779391944,0,
00:00:01.772,0.0042345947586,0,
00:00:01.776,-0.00182331935502589,0,
00:00:01.78,-0.00284029194153845,0,
00:00:01.784,-0.00368898594751954,0,
00:00:01.788,0.00399357592687011,0,
00:00:01.792,0.00053780124289915,0,
00:00:01.796,-0.0025387411005795,0,
00:00:01.8,-0.000504577183164656,0,
00:00:01.804,0.00768872443586588,0,
00:00:01.808,9.117741137743E-05,0,
00:00:01.812,-0.0078073744662106,0,
00:00:01.816,-0.00385076738893986,0,
00:00:01.82,-0.000676837575156242,0,
00:00:01.824,0.0141155095770955,0,
00:00:01.828,-0.000885104644112289,0,
00:00:01.832,-0.00499972142279148,0,
00:00:01.836,-0.0057806852273643,0,
00:00:01.84,0.00104334705974907,0,
00:00:01.844,0.00276119983755052,0,
00:00:01.848,-0.000130266649648547,0,
00:00:01.852,-0.00169903493952006,0,
00:00:01.856,0.0112373940646648,0,
00:00:01.86,-0.00130278256256133,0,
00:00:01.864,-0.0101472651585937,0,
00:00:01.868,-0.00314250402152538,0,
00:00:01.872,0.0035255616530776,0,
00:00:01.876,-0.000985853374004364,0,
00:00:01.88,0.0028193115722388,0,
00:00:01.884,0.000384242710424587,0,
00:00:01.888,0.0047377934679389,0,
00:00:01.892,-0.00112174008972943,0,
00:00:01.896,-0.00279124942608178,0,
00:00:01.9,-0.00207091448828578,0,
00:00:01.904,-0.000602738175075501,0,
00:00:01.908,0.000543261237908155,0,
00:00:01.912,0.000970115477684885,0,
00:00:01.916,0.000787701865192503,0,
00:00:01.92,0.00033121817978099,0,
00:00:01.924,0.00199098791927099,0,
00:00:01.928,-0.00434623938053846,0,
00:00:01.932,4.03247759095393E-05,0,
00:00:01.936,0.00129853666294366,0,
00:00:01.94,0.000998580013401806,0,
00:00:01.944,0.000257727573625743,0,
00:00:01.948,0.00177525461185724,0,
00:00:01.952,-0.00453103939071298,0,
00:00:01.956,-2.61550558207091E-05,0,
00:00:01.96,0.0034193811006844,0,
00:00:01.964,-0.00295395869761705,0,
00:00:01.968,0.000682224170304835,0,
00:00:01.972,0.00328958872705698,0,
00:00:01.976,-0.00143125595059246,0,
00:00:01.98,-0.001840376178734,0,
00:00:01.984,-0.00280124065466225,0,
00:00:01.988,0.00232582399621606,0,
00:00:01.992,0.00452041625976563,0,
00:00:01.996,-0.00112509191967547,0,
00:00:02,-0.00221424410119653,0,
00:00:02.004,-0.00130855967290699,0,
00:00:02.008,-7.78525063651614E-05,0,
00:00:02.012,0.000666253443341702,0,
00:00:02.016,-0.00129993841983378,0,
00:00:02.02,0.00244885380379856,0,
00:00:02.024,0.00379042304120958,0,
00:00:02.028,-0.00200239662081003,0,
00:00:02.032,-0.00276824878528714,0,
00:00:02.036,-0.00141494942363352,0,
00:00:02.04,0.000134264919324778,0,
00:00:02.044,-0.0010970305884257,0,
00:00:02.048,0.00299031264148653,0,
00:00:02.052,0.00428565312176943,0,
00:00:02.056,-0.00175640569068491,0,
00:00:02.06,-0.00277952942997217,0,
00:00:02.064,-0.00157493120059371,0,
00:00:02.068,-4.54035689472221E-05,0,
00:00:02.072,0.000864150992128998,0,
00:00:02.076,0.000987467472441494,0,
00:00:02.08,0.002678785007447,0,
00:00:02.084,-0.00187670846935362,0,
00:00:02.088,-0.00189180637244135,0,
00:00:02.092,-0.00260427384637296,0,
00:00:02.096,0.00255590444430709,0,
00:00:02.1,0.00464735785499215,0,
00:00:02.104,-0.00112793745938689,0,
00:00:02.108,-0.00229978444986045,0,
00:00:02.112,-0.00140951236244291,0,
00:00:02.116,-0.00222181878052652,0,
00:00:02.12,0.00262128142639995,0,
00:00:02.124,0.00243417243473232,0,
00:00:02.128,0.000681253615766764,0,
00:00:02.132,-0.000744181394111365,0,
00:00:02.136,-0.00121967890299857,0,
00:00:02.14,-0.00299103511497378,0,
00:00:02.144,0.00167492055334151,0,
00:00:02.148,0.00185607362072915,0,
00:00:02.152,0.000613209616858512,0,
00:00:02.156,-0.000458007823908702,0,
00:00:02.16,-0.000835870101582259,0,
00:00:02.164,0.00144253089092672,0,
00:00:02.168,-0.00217208499088883,0,
00:00:02.172,-0.00147248827852309,0,
00:00:02.176,0.0001472591975471,0,
00:00:02.18,-0.000951606722082943,0,
00:00:02.184,0.00314074149355292,0,
00:00:02.188,0.0022679150570184,0,
00:00:02.192,0.00224860641174018,0,
00:00:02.196,-0.00321556883864105,0,
00:00:02.2,-0.00521571468561888,0,
00:00:02.204,0.0029266441706568,0,
00:00:02.208,-0.00174139556474984,0,
00:00:02.212,0.00191558664664626,0,
00:00:02.216,0.0059563284739852,0,
00:00:02.22,-0.0055297864601016,0,
00:00:02.224,0.000188471341971308,0,
00:00:02.228,-0.00162726989947259,0,
00:00:02.232,-0.000488355522975326,0,
00:00:02.236,0.000796591222751886,0,
00:00:02.24,0.00123312068171799,0,
00:00:02.244,0.000890938972588629,0,
00:00:02.248,-0.00183433725032955,0,
00:00:02.252,0.0037647015415132,0,
00:00:02.256,-0.000829899858217686,0,
00:00:02.26,-0.00188319478183985,0,
00:00:02.264,-0.00121760915499181,0,
00:00:02.268,-0.000170788640389219,0,
00:00:02.272,0.000528527365531772,0,
00:00:02.276,0.000692463188897818,0,
00:00:02.28,-0.00160407228395343,0,
00:00:02.284,0.00210222788155079,0,
00:00:02.288,0.00150542519986629,0,
00:00:02.292,-5.86426758673042E-05,0,
00:00:02.296,-0.00103670125827193,0,
00:00:02.3,-0.00111448438838124,0,
00:00:02.304,0.00145813752897084,0,
00:00:02.308,-0.00406707171350718,0,
00:00:02.312,0.000702630262821913,0,
00:00:02.316,0.0019144801190123,0,
00:00:02.32,0.00132904900237918,0,
00:00:02.324,0.000281676097074524,0,
00:00:02.328,-0.000465396529762074,0,
00:00:02.332,-0.000684301892761141,0,
00:00:02.336,-0.000499175395816565,0,
00:00:02.34,0.00191237300168723,0,
00:00:02.344,-0.00186481210403144,0,
00:00:02.348,-0.00349095882847905,0,
00:00:02.352,0.00199733069166541,0,
00:00:02.356,0.00465843454003334,0,
00:00:02.36,-0.000773807463701814,0,
00:00:02.364,-0.00399085832759738,0,
00:00:02.368,0.000783828960265964,0,
00:00:02.372,0.00150967366062105,0,
00:00:02.376,0.00277961115352809,0,
00:00:02.38,-0.00425105588510633,0,
00:00:02.384,-0.000294595636660233,0,
00:00:02.388,0.000899049860890955,0,
00:00:02.392,0.000767753866966814,0,
00:00:02.396,0.000246084644459188,0,
00:00:02.4,-0.00224349438212812,0,
00:00:02.404,0.00166087574325502,0,
00:00:02.408,0.00347405415959656,0,
00:00:02.412,-0.00188210676424205,0,
00:00:02.416,-0.00450724083930254,0,
00:00:02.42,0.000884921115357429,0,
00:00:02.424,0.00403237901628017,0,
00:00:02.428,-0.000800299050752074,0,
00:00:02.432,-0.00362863228656352,0,
00:00:02.436,0.00330701470375061,0,
00:00:02.44,-0.000154616427607834,0,
00:00:02.444,-0.000838211737573147,0,
00:00:02.448,-0.00251841684803367,0,
00:00:02.452,0.00413176603615284,0,
00:00:02.456,-0.00206407741643488,0,
00:00:02.46,0.00290823262184858,0,
00:00:02.464,-0.00328295631334186,0,
00:00:02.468,0.000290236319415271,0,
00:00:02.472,0.00296099786646664,0,
00:00:02.476,-0.00157249439507723,0,
00:00:02.48,-0.00178787915501744,0,
00:00:02.484,-0.000563280074857175,0,
00:00:02.488,0.000518781307619065,0,
00:00:02.492,0.000908269197680056,0,
00:00:02.496,-0.00137607357464731,0,
00:00:02.5,0.00221584876999259,0,
00:00:02.504,0.00356415938585997,0,
00:00:02.508,-0.00212816917337477,0,
00:00:02.512,-0.00485721789300442,0,
00:00:02.516,0.000618646794464439,0,
00:00:02.52,0.00392713258042932,0,
00:00:02.524,-0.000766899553127587,0,
00:00:02.528,-0.0014528539031744,0,
00:00:02.532,-0.000648052140604705,0,
00:00:02.536,-0.00184458179865032,0,
00:00:02.54,0.00468247570097446,0,
00:00:02.544,0.00229423609562218,0,
00:00:02.548,-0.00528255477547646,0,
00:00:02.552,-0.00076069770148024,0,
00:00:02.556,0.00104651530273259,0,
00:00:02.56,0.00118510972242802,0,
00:00:02.564,0.000600526283960789,0,
00:00:02.568,-3.35985023411922E-05,0,
00:00:02.572,-0.000385392311727628,0,
00:00:02.576,-0.000413734756875783,0,
00:00:02.58,-0.000243048692937009,0,
00:00:02.584,-3.29710637743119E-05,0,
00:00:02.588,0.000107131934782956,0,
00:00:02.592,0.000144484016345814,0,
00:00:02.596,0.000104853228549473,0,
00:00:02.6,3.68381915905047E-05,0,
00:00:02.604,-1.87151326827006E-05,0,
00:00:02.608,-4.31684347859118E-05,0,
00:00:02.612,-3.89402193832211E-05,0,
00:00:02.616,-0.00209553237073123,0,
00:00:02.62,0.00197526928968728,0,
00:00:02.624,0.00372930942103267,0,
00:00:02.628,-0.00386076443828642,0,
00:00:02.632,0.00157497101463377,0,
00:00:02.636,-0.00153573986608535,0,
00:00:02.64,-0.0012553361011669,0,
00:00:02.644,-7.79918482294306E-05,0,
00:00:02.648,0.000743284414056689,0,
00:00:02.652,0.000886186433490366,0,
00:00:02.656,0.000550568918697536,0,
00:00:02.66,8.74625911819749E-05,0,
00:00:02.664,-0.000239360495470464,0,
00:00:02.668,-0.00241307867690921,0,
00:00:02.672,0.00172118714544922,0,
00:00:02.676,0.00361968297511339,0,
00:00:02.68,-0.00176364742219448,0,
00:00:02.684,-0.00238750595599413,0,
00:00:02.688,-0.00111253652721643,0,
00:00:02.692,-0.00181401101872325,0,
00:00:02.696,0.00292474101297557,0,
00:00:02.7,0.00254860008135438,0,
00:00:02.704,0.000636718177702278,0,
00:00:02.708,-0.000862420245539397,0,
00:00:02.712,0.000745499099139124,0,
00:00:02.716,-0.00294927787035704,0,
00:00:02.72,-0.00194563146214932,0,
00:00:02.724,6.76085619488731E-05,0,
00:00:02.728,-0.000759655667934567,0,
00:00:02.732,0.00341276777908206,0,
00:00:02.736,0.0045473612844944,0,
00:00:02.74,-0.00172564212698489,0,
00:00:02.744,-0.00291240424849093,0,
00:00:02.748,-0.00175462942570448,0,
00:00:02.752,-0.000179160721017979,0,
00:00:02.756,0.000813111488241702,0,
00:00:02.76,0.00100616435520351,0,
00:00:02.764,0.000654313305858523,0,
00:00:02.768,-0.00192882411647588,0,
00:00:02.772,0.0038272135425359,0,
00:00:02.776,-0.000683085236232728,0,
00:00:02.78,-0.00174036575481296,0,
00:00:02.784,-0.00113408581819385,0,
00:00:02.788,-0.000156118330778554,0,
00:00:02.792,0.000497168337460607,0,
00:00:02.796,0.000647752138320357,0,
00:00:02.8,0.000438358692917973,0,
00:00:02.804,0.000114473339635879,0,
00:00:02.808,0.00194426358211786,0,
00:00:02.812,-0.00427364278584719,0,
00:00:02.816,-0.00192428031004965,0,
00:00:02.82,0.0054356437176466,0,
00:00:02.824,0.000699666852597147,0,
00:00:02.828,-0.00121785514056683,0,
00:00:02.832,-0.00135260878596455,0,
00:00:02.836,-0.000695970898959786,0,
00:00:02.84,2.0560844859574E-05,0,
00:00:02.844,0.000425978854764253,0,
00:00:02.848,0.000468261248897761,0,
00:00:02.852,0.000282355846138671,0,
00:00:02.856,4.65348493889906E-05,0,
00:00:02.86,-0.000114424045023043,0,
00:00:02.864,-0.000160827330546454,0,
00:00:02.868,-0.000119463416922372,0,
00:00:02.872,-4.41564916400239E-05,0,
00:00:02.876,1.88057783816475E-05,0,
00:00:02.88,4.75533524877392E-05,0,
00:00:02.884,4.39530595031101E-05,0,
00:00:02.888,-0.00205280096270144,0,
00:00:02.892,0.00405195215716958,0,
00:00:02.896,-0.000345733278663829,0,
00:00:02.9,-0.00147988728713244,0,
00:00:02.904,-0.00102968339342624,0,
00:00:02.908,-0.000187642537639476,0,
00:00:02.912,0.000399693526560441,0,
00:00:02.916,-0.00152224546764046,0,
00:00:02.92,0.00443758070468903,0,
00:00:02.924,-0.000223666487727314,0,
00:00:02.928,-0.0036475881934166,0,
00:00:02.932,0.00284017552621663,0,
00:00:02.936,-0.000678151904139668,0,
00:00:02.94,-0.0032173446379602,0,
00:00:02.944,0.00151276204269379,0,
00:00:02.948,0.00189244421198964,0,
00:00:02.952,0.000737990019842982,0,
00:00:02.956,0.00170930626336485,0,
00:00:02.96,-0.00280370260588825,0,
00:00:02.964,-0.00233569205738604,0,
00:00:02.968,-0.000456129695521668,0,
00:00:02.972,0.000948698550928384,0,
00:00:02.976,0.00132505712099373,0,
00:00:02.98,0.000917612574994564,0,
00:00:02.984,-0.00183425529394299,0,
00:00:02.988,-0.000383912614779547,0,
00:00:02.992,0.00521117309108377,0,
00:00:02.996,0.00152247934602201,0,
00:00:03,-0.00653807818889618,0,
00:00:03.004,-0.00168976315762848,0,
00:00:03.008,0.00285813468508422,0,
00:00:03.012,-0.000500924827065319,0,
00:00:03.016,-0.000524023314937949,0,
00:00:03.02,0.000232237711315975,0,
00:00:03.024,0.000672548485454172,0,
00:00:03.028,0.000605858163908124,0,
00:00:03.032,0.000253062520641834,0,
00:00:03.036,-0.000101841280411463,0,
00:00:03.04,0.0017865679692477,0,
00:00:03.044,-0.00226194690912962,0,
00:00:03.048,-0.00388528453186154,0,
00:00:03.052,-0.000305503141134977,0,
00:00:03.056,0.0066007561981678,0,
00:00:03.06,0.00511414092034101,0,
00:00:03.064,-0.00556037947535515,0,
00:00:03.068,-0.00730096083134413,0,
00:00:03.072,0.00256965239532292,0,
00:00:03.076,-0.000844088557641953,0,
00:00:03.08,0.00308831455186009,0,
00:00:03.084,0.00254959333688021,0,
00:00:03.088,0.00061151827685535,0,
00:00:03.092,-0.0009156025480479,0,
00:00:03.096,0.000662211270537227,0,
00:00:03.1,-0.00304178195074201,0,
00:00:03.104,-0.00202001188881695,0,
00:00:03.108,2.74563008133555E-05,0,
00:00:03.112,-0.000766322133131325,0,
00:00:03.116,0.00342704681679606,0,
00:00:03.12,0.00456726644188166,0,
00:00:03.124,-0.0037868763320148,0,
00:00:03.128,-0.000931897026021034,0,
00:00:03.132,-0.00219084182754159,0,
00:00:03.136,0.0040431204251945,0,
00:00:03.14,-0.000368205626728013,0,
00:00:03.144,-0.00148916209582239,0,
00:00:03.148,-0.000996025279164314,0,
00:00:03.152,0.00195774459280074,0,
00:00:03.156,-0.00149933516513556,0,
00:00:03.16,-0.00310865300707519,0,
00:00:03.164,0.00428402004763484,0,
00:00:03.168,0.000615221040789038,0,
00:00:03.172,-0.000561812368687242,0,
00:00:03.176,-0.000598360551521182,0,
00:00:03.18,-0.000273690005997196,0,
00:00:03.184,2.08294695767108E-05,0,
00:00:03.188,0.00015254391473718,0,
00:00:03.192,0.0001387532975059,0,
00:00:03.196,5.56058730580844E-05,0,
00:00:03.2,-2.5037430532393E-05,0,
00:00:03.204,-6.52216040180065E-05,0,
00:00:03.208,-6.224889511941E-05,0,
00:00:03.212,0.00204148143529892,0,
00:00:03.216,9.71146073425189E-05,0,
00:00:03.22,-0.00567694008350372,0,
00:00:03.224,0.000176953268237412,0,
00:00:03.228,0.00232222070917487,0,
00:00:03.232,0.00205204170197248,0,
00:00:03.236,0.000812358048278838,0,
00:00:03.24,-0.000321693863952532,0,
00:00:03.244,-0.000855337653774768,0,
00:00:03.248,-0.000794171064626426,0,
00:00:03.252,-0.000410105480113998,0,
00:00:03.256,-4.25461985287257E-06,0,
00:00:03.26,-0.00183792854659259,0,
00:00:03.264,0.00225406652316451,0,
00:00:03.268,0.0039014033973217,0,
00:00:03.272,-0.00174896093085408,0,
00:00:03.276,-0.00253508053719997,0,
00:00:03.28,-0.00129161786753684,0,
00:00:03.284,0.000141134893056005,0,
00:00:03.288,0.00299051939509809,0,
00:00:03.292,-0.0010383075568825,0,
00:00:03.296,-0.00112690939567983,0,
00:00:03.3,-0.00222625816240907,0,
00:00:03.304,0.002536402316764,0,
00:00:03.308,0.00439927075058222,0,
00:00:03.312,-0.00348092662170529,0,
00:00:03.316,-0.000500409165397286,0,
00:00:03.32,0.000191135870409198,0,
00:00:03.324,8.60327418195084E-05,0,
00:00:03.328,0.00196680845692754,0,
00:00:03.332,-0.00421732664108276,0,
00:00:03.336,0.000235635583521798,0,
00:00:03.34,0.00147454801481217,0,
00:00:03.344,-0.000972329638898373,0,
00:00:03.348,0.00225953478366137,0,
00:00:03.352,0.00339039950631559,0,
00:00:03.356,-0.00439900066703558,0,
00:00:03.36,-0.000904613232705742,0,
00:00:03.364,0.000301138818031177,0,
00:00:03.368,0.00254611065611243,0,
00:00:03.372,-0.00377085525542498,0,
00:00:03.376,0.00039583194302395,0,
00:00:03.38,0.00140533235389739,0,
00:00:03.384,0.00301545648835599,0,
00:00:03.388,-0.00183255132287741,0,
00:00:03.392,-0.00203280919231474,0,
00:00:03.396,-0.000690250424668193,0,
00:00:03.4,-0.00157662574201822,0,
00:00:03.404,0.00291984155774117,0,
00:00:03.408,0.00446083815768361,0,
00:00:03.412,-0.00153444637544453,0,
00:00:03.416,-0.00263950834050775,0,
00:00:03.42,-0.00155056291259825,0,
00:00:03.424,-0.000102774953120388,0,
00:00:03.428,0.00078208080958575,0,
00:00:03.432,0.000925649772398174,0,
00:00:03.436,0.00057943508727476,0,
00:00:03.44,0.000107528241642285,0,
00:00:03.444,0.00185012561269104,0,
00:00:03.448,-0.00230411277152598,0,
00:00:03.452,-0.00396787468343973,0,
00:00:03.456,0.00170092051848769,0,
00:00:03.46,0.00251833628863096,0,
00:00:03.464,0.0013003796339035,0,
00:00:03.468,-0.000121183969895355,0,
00:00:03.472,-0.000896784476935863,0,
00:00:03.476,0.0011478589149192,0,
00:00:03.48,-0.00249044084921479,0,
00:00:03.484,-0.00167389947455376,0,
00:00:03.488,9.84910875558853E-05,0,
00:00:03.492,0.00118494138587266,0,
00:00:03.496,0.00126404559705406,0,
00:00:03.5,0.000704340287484229,0,
00:00:03.504,2.88421815639595E-05,0,
00:00:03.508,-0.00248093786649406,0,
00:00:03.512,0.00147693185135722,0,
00:00:03.516,0.00129717506933957,0,
00:00:03.52,6.7731954914052E-05,0,
00:00:03.524,-0.000768074591178447,0,
00:00:03.528,-0.000877589627634734,0,
00:00:03.532,-0.000500838155858219,0,
00:00:03.536,-1.94736694538733E-05,0,
00:00:03.54,0.000297026184853166,0,
00:00:03.544,0.00244375923648477,0,
00:00:03.548,-0.00379368080757558,0,
00:00:03.552,0.000417811621446162,0,
00:00:03.556,0.00348863331601024,0,
00:00:03.56,-0.00106510426849127,0,
00:00:03.564,-0.00155326235108078,0,
00:00:03.568,-0.000621152343228459,0,
00:00:03.572,0.000295645208097994,0,
00:00:03.576,0.00067454669624567,0,
00:00:03.58,0.000555743230506778,0,
00:00:03.584,-0.00186665053479373,0,
00:00:03.588,0.00394478440284729,0,
00:00:03.592,-0.000590222305618227,0,
00:00:03.596,-0.00170505873393267,0,
00:00:03.6,-0.0011489917524159,0,
00:00:03.604,-0.000194501742953435,0,
00:00:03.608,0.00253717508167028,0,
00:00:03.612,-0.0034222467802465,0,
00:00:03.616,0.000770748069044203,0,
00:00:03.62,0.00158952141646296,0,
00:00:03.624,0.00297617516480386,0,
00:00:03.628,-0.00408058753237128,0,
00:00:03.632,0.00183254014700651,0,
00:00:03.636,-0.00114175619091839,0,
00:00:03.64,-0.000995514448732138,0,
00:00:03.644,-4.09288550144993E-05,0,
00:00:03.648,-0.00146076024975628,0,
00:00:03.652,0.00268192496150732,0,
00:00:03.656,0.00205577537417412,0,
00:00:03.66,0.000209720674320124,0,
00:00:03.664,0.00100987276528031,0,
00:00:03.668,-0.0032896192278713,0,
00:00:03.672,-0.00247768103145063,0,
00:00:03.676,-0.000329727161442861,0,
00:00:03.68,0.00118103565182537,0,
00:00:03.684,0.00152105686720461,0,
00:00:03.688,0.00100878183729947,0,
00:00:03.692,0.000232431164477021,0,
00:00:03.696,-0.00242301309481263,0,
00:00:03.7,0.00142498116474599,0,
00:00:03.704,0.00120328168850392,0,
00:00:03.708,-1.04028731584549E-05,0,
00:00:03.712,-0.000803469971287996,0,
00:00:03.716,-0.000872810778673738,0,
00:00:03.72,0.00160114979371428,0,
00:00:03.724,-0.001967319753021,0,
00:00:03.728,-0.00132860336452723,0,
00:00:03.732,-0.00188194715883583,0,
00:00:03.736,0.00306922127492726,0,
00:00:03.74,0.00482106674462557,0,
00:00:03.744,-0.00122651783749461,0,
00:00:03.748,-0.00459090806543827,0,
00:00:03.752,0.00245036883279681,0,
00:00:03.756,-0.000574405945371836,0,
00:00:03.76,-0.000817146385088563,0,
00:00:03.764,-0.000169885126524605,0,
00:00:03.768,0.000384912185836583,0,
00:00:03.772,0.000537614396307617,0,
00:00:03.776,0.000366998341633007,0,
00:00:03.78,-0.00199065171182156,0,
00:00:03.784,0.00391951203346252,0,
00:00:03.788,0.00153252435848117,0,
00:00:03.792,-0.00360979908145964,0,
00:00:03.796,-0.00481218239292502,0,
00:00:03.8,0.00162577035371214,0,
00:00:03.804,0.00293963379226625,0,
00:00:03.808,0.00181308714672923,0,
00:00:03.812,0.000205482647288591,0,
00:00:03.816,-0.000832403835374862,0,
00:00:03.82,-0.00105200801044703,0,
00:00:03.824,-0.000699789205100387,0,
00:00:03.828,-0.000174235625308938,0,
00:00:03.832,0.000218436733121052,0,
00:00:03.836,0.000359335477696732,0,
00:00:03.84,0.00028956716414541,0,
00:00:03.844,0.000125186110381037,0,
00:00:03.848,-0.00210027559660375,0,
00:00:03.852,0.00394961144775152,0,
00:00:03.856,-0.000436237576650456,0,
00:00:03.86,-0.00152462942060083,0,
00:00:03.864,0.0010473127476871,0,
00:00:03.868,-0.00421118643134832,0,
00:00:03.872,0.000764093769248575,0,
00:00:03.876,0.00411415286362171,0,
00:00:03.88,-0.000564358313567936,0,
00:00:03.884,-0.00342946755699813,0,
00:00:03.888,0.00336032430641353,0,
00:00:03.892,-0.000238394670304842,0,
00:00:03.896,-0.00098324182908982,0,
00:00:03.9,-0.000569928670302033,0,
00:00:03.904,1.44622763400548E-05,0,
00:00:03.908,0.000341375183779746,0,
00:00:03.912,0.000356173783075064,0,
00:00:03.916,0.00018720913794823,0,
00:00:03.92,-7.31630643713288E-06,0,
00:00:03.924,0.00194972637109458,0,
00:00:03.928,-0.00419625639915466,0,
00:00:03.932,0.000237734217080288,0,
00:00:03.936,0.00143896660301834,0,
00:00:03.94,0.00312121608294547,0,
00:00:03.944,-0.00174554577097297,0,
00:00:03.948,-0.00200223876163363,0,
00:00:03.952,-0.00278533436357975,0,
00:00:03.956,0.00450856098905206,0,
00:00:03.96,0.000573846278712153,0,
00:00:03.964,-0.00281670084223151,0,
00:00:03.968,0.00121939566452056,0,
00:00:03.972,0.00131353340111673,0,
00:00:03.976,0.00231686583720148,0,
00:00:03.98,-0.0046515017747879,0,
00:00:03.984,0.00160236691590399,0,
00:00:03.988,-0.00104126846417785,0,
00:00:03.992,-0.00280141364783049,0,
00:00:03.996,0.00219722068868577,0,
00:00:04,0.00448308931663632,0,
00:00:04.004,-0.00314583582803607,0,
00:00:04.008,0.0019177416106686,0,
00:00:04.012,-0.00158979510888457,0,
00:00:04.016,-0.00153724208939821,0,
00:00:04.02,-0.000381833233404905,0,
00:00:04.024,0.000552676268853247,0,
00:00:04.028,0.000841899949591607,0,
00:00:04.032,0.000610295915976167,0,
00:00:04.036,0.00018224396626465,0,
00:00:04.04,-0.000164767276146449,0,
00:00:04.044,-0.000306504836771637,0,
00:00:04.048,-0.000262146175373346,0,
00:00:04.052,-0.000125381222460419,0,
00:00:04.056,7.86180316936225E-06,0,
00:00:04.06,8.2276550529059E-05,0,
00:00:04.064,9.04714252101257E-05,0,
00:00:04.068,-0.00201933295466006,0,
00:00:04.072,0.00406344095245004,0,
00:00:04.076,-0.000352015136741102,0,
00:00:04.08,-0.00149385386612266,0,
00:00:04.084,-0.00104214029852301,0,
00:00:04.088,-0.000193863845197484,0,
00:00:04.092,0.000399791955715045,0,
00:00:04.096,0.000557286955881864,0,
00:00:04.1,-0.00168502435553819,0,
00:00:04.104,0.0041634626686573,0,
00:00:04.108,-0.000439410912804306,0,
00:00:04.112,-0.00373276812024415,0,
00:00:04.116,0.000794222170952708,0,
00:00:04.12,0.00345821981318295,0,
00:00:04.124,-0.00139335228595883,0,
00:00:04.128,-0.00188313121907413,0,
00:00:04.132,-0.000765654258430004,0,
00:00:04.136,-0.0017214136896655,0,
00:00:04.14,0.00489719631150365,0,
00:00:04.144,0.000396081421058625,0,
00:00:04.148,-0.00322699639946222,0,
00:00:04.152,0.000870338815730065,0,
00:00:04.156,0.00116393773350865,0,
00:00:04.16,0.00235569896176457,0,
00:00:04.164,-0.0024397405795753,0,
00:00:04.168,-0.00231280084699392,0,
00:00:04.172,-0.000629905378445983,0,
00:00:04.176,0.000750237901229411,0,
00:00:04.18,0.00120857311412692,0,
00:00:04.184,0.000905545719433576,0,
00:00:04.188,0.000298945262329653,0,
00:00:04.192,0.00186716101597995,0,
00:00:04.196,-0.00447964062914252,0,
00:00:04.2,-4.5640037569683E-05,0,
00:00:04.204,0.00335128558799624,0,
00:00:04.208,-0.000953663315158337,0,
00:00:04.212,-0.00342009775340557,0,
00:00:04.216,0.00153048220090568,0,
00:00:04.22,0.00201929570175707,0,
00:00:04.224,0.00084283237811178,0,
00:00:04.228,-0.000344784726621583,0,
00:00:04.232,-0.000880129286088049,0,
00:00:04.236,-0.000774269283283502,0,
00:00:04.24,-0.000345758016919717,0,
00:00:04.244,7.45422585168853E-05,0,
00:00:04.248,0.000299580919090658,0,
00:00:04.252,0.000307790614897385,0,
00:00:04.256,0.000182567426236346,0,
00:00:04.26,3.1674175261287E-05,0,
00:00:04.264,-0.00214577023871243,0,
00:00:04.268,0.00395171577110887,0,
00:00:04.272,-0.000407213054131716,0,
00:00:04.276,-0.00149233487900347,0,
00:00:04.28,-0.00100813480094075,0,
00:00:04.284,-0.000155481757246889,0,
00:00:04.288,0.000424239755375311,0,
00:00:04.292,0.000563081412110478,0,
00:00:04.296,0.000383151142159477,0,
00:00:04.3,0.000100185767223593,0,
00:00:04.304,-0.00219152914360166,0,
00:00:04.308,0.00177934777457267,0,
00:00:04.312,0.00148173014167696,0,
00:00:04.316,0.000105838538729586,0,
00:00:04.32,-0.000831415236461908,0,
00:00:04.324,-0.000972939596977085,0,
00:00:04.328,-0.000573978875763714,0,
00:00:04.332,-4.82586619909853E-05,0,
00:00:04.336,0.000306507718050852,0,
00:00:04.34,0.000395744340494275,0,
00:00:04.344,0.000283941655652598,0,
00:00:04.348,9.89270338322967E-05,0,
00:00:04.352,-5.10329700773582E-05,0,
00:00:04.356,0.00195909733884037,0,
00:00:04.36,-0.00208032806403935,0,
00:00:04.364,-0.00377096841111779,0,
00:00:04.368,0.00387402181513608,0,
00:00:04.372,0.00054045591969043,0,
00:00:04.376,-0.000401548779336736,0,
00:00:04.38,-0.000365960906492546,0,
00:00:04.384,-0.00217310525476933,0,
00:00:04.388,0.00414040824398398,0,
00:00:04.392,0.00187121971976012,0,
00:00:04.396,-0.00544488243758678,0,
00:00:04.4,-0.000694978749379516,0,
00:00:04.404,0.00122050126083195,0,
00:00:04.408,0.00134915311355144,0,
00:00:04.412,0.000688903499394655,0,
00:00:04.416,-2.72201377811143E-05,0,
00:00:04.42,-0.000429655250627548,0,
00:00:04.424,-0.000468601792817935,0,
00:00:04.428,-0.000280562118859962,0,
00:00:04.432,-4.42330456280615E-05,0,
00:00:04.436,0.000116053037345409,0,
00:00:04.44,0.000161373056471348,0,
00:00:04.444,0.000119145843200386,0,
00:00:04.448,4.34723551734351E-05,0,
00:00:04.452,-0.00209518987685442,0,
00:00:04.456,0.00400325143709779,0,
00:00:04.46,-0.000377223012037575,0,
00:00:04.464,-0.00356357870623469,0,
00:00:04.468,0.000954907503910363,0,
00:00:04.472,0.00146973109804094,0,
00:00:04.476,0.000589021015912294,0,
00:00:04.48,-0.000283969566226006,0,
00:00:04.484,-0.000642298837192357,0,
00:00:04.488,0.00155044789426029,0,
00:00:04.492,-0.00216818531043828,0,
00:00:04.496,-0.00361050013452768,0,
00:00:04.5,0.00204687309451401,0,
00:00:04.504,0.00271459366194904,0,
00:00:04.508,0.00340272672474384,0,
00:00:04.512,-0.00425570271909237,0,
00:00:04.516,-0.000675301067531109,0,
00:00:04.52,0.00253243977203965,0,
00:00:04.524,-0.00149826915003359,0,
00:00:04.528,-0.00354968709871173,0,
00:00:04.532,0.00171029556076974,0,
00:00:04.536,0.0043837851844728,0,
00:00:04.54,-0.000901958497706801,0,
00:00:04.544,-0.00188859144691378,0,
00:00:04.548,-0.0010783108882606,0,
00:00:04.552,-1.34141682792688E-05,0,
00:00:04.556,0.000599600956775248,0,
00:00:04.56,0.0006579032051377,0,
00:00:04.564,0.000374806055333465,0,
00:00:04.568,2.69523497991031E-05,0,
00:00:04.572,-0.000199289454030804,0,
00:00:04.576,-0.000251233897870407,0,
00:00:04.58,-0.000175843902979977,0,
00:00:04.584,-0.00213274010457098,0,
00:00:04.588,0.00201217993162572,0,
00:00:04.592,0.00379372504539788,0,
00:00:04.596,-0.001732102711685,0,
00:00:04.6,-0.00245266873389483,0,
00:00:04.604,0.000869525014422834,0,
00:00:04.608,-0.00385952601209283,0,
00:00:04.612,0.00333216530270875,0,
00:00:04.616,-0.00166890840046108,0,
00:00:04.62,0.0039161741733551,0,
00:00:04.624,-0.000319371611112729,0,
00:00:04.628,-0.00130843592341989,0,
00:00:04.632,-0.000883824890479445,0,
00:00:04.636,-0.000166137659107335,0,
00:00:04.64,0.000305782916257158,0,
00:00:04.644,0.000413110014051199,0,
00:00:04.648,0.000269415788352489,0,
00:00:04.652,5.21437723364215E-05,0,
00:00:04.656,-0.000106427003629506,0,
00:00:04.66,-0.000157639136887155,0,
00:00:04.664,-0.000121568962640595,0,
00:00:04.668,-4.88228324684314E-05,0,
00:00:04.672,0.00209034676663578,0,
00:00:04.676,-0.00192992517258972,0,
00:00:04.68,-0.0015980729367584,0,
00:00:04.684,-0.00222853594459593,0,
00:00:04.688,0.00489619700238109,0,
00:00:04.692,0.000682889251038432,0,
00:00:04.696,-0.000849059550091624,0,
00:00:04.7,-0.00094828917644918,0,
00:00:04.704,-0.000489099882543087,0,
00:00:04.708,-0.00208536582067609,0,
00:00:04.712,0.00222632940858603,0,
00:00:04.716,0.00191603950224817,0,
00:00:04.72,0.00240867538377643,0,
00:00:04.724,-0.00488156406208873,0,
00:00:04.728,-0.000774934247601777,0,
00:00:04.732,0.000732642482034862,0,
00:00:04.736,0.000867076683789492,0,
00:00:04.74,0.000463213364128023,0,
00:00:04.744,0.00210294732823968,0,
00:00:04.748,-0.0021908525377512,0,
00:00:04.752,-0.00188531028106809,0,
00:00:04.756,-0.000318125501507893,0,
00:00:04.76,0.000829562661238015,0,
00:00:04.764,0.00109854177571833,0,
00:00:04.768,-0.00135406432673335,0,
00:00:04.772,0.00212137680500746,0,
00:00:04.776,0.00136227998882532,0,
00:00:04.78,-0.000244984985329211,0,
00:00:04.784,-0.00117269961629063,0,
00:00:04.788,-0.00116438430268317,0,
00:00:04.792,-0.000596329511608928,0,
00:00:04.796,3.77204778487794E-05,0,
00:00:04.8,0.00041893872548826,0,
00:00:04.804,0.000475413835374638,0,
00:00:04.808,0.000310279050609097,0,
00:00:04.812,8.2791069871746E-05,0,
00:00:04.816,-8.50620635901578E-05,0,
00:00:04.82,-0.00014655219274573,0,
00:00:04.824,-0.0001196094090119,0,
00:00:04.828,0.00202323263511062,0,
00:00:04.832,-0.00404191296547651,0,
00:00:04.836,0.00245037558488548,0,
00:00:04.84,-0.00254375673830509,0,
00:00:04.844,0.00137779919896275,0,
00:00:04.848,0.00580528611317277,0,
00:00:04.852,-0.00541377579793334,0,
00:00:04.856,-0.00168661656789482,0,
00:00:04.86,0.000498117529787123,0,
00:00:04.864,0.00120210845489055,0,
00:00:04.868,0.000938180717639625,0,
00:00:04.872,0.000319580547511578,0,
00:00:04.876,-0.000198315377929248,0,
00:00:04.88,-0.000419051444623619,0,
00:00:04.884,-0.000366616150131449,0,
00:00:04.888,-0.0001764242479112,0,
00:00:04.892,1.2073543985025E-05,0,
00:00:04.896,0.000117992873128969,0,
00:00:04.9,0.000129694017232396,0,
00:00:04.904,8.10254932730459E-05,0,
00:00:04.908,1.78361151483841E-05,0,
00:00:04.912,-2.67557734332513E-05,0,
00:00:04.916,-4.13373090850655E-05,0,
00:00:04.92,-3.21105399052612E-05,0,
00:00:04.924,-1.2924067050335E-05,0,
00:00:04.928,3.84639361072914E-06,0,
00:00:04.932,-0.00206377892754972,0,
00:00:04.936,0.0019869371317327,0,
00:00:04.94,0.00164844247046858,0,
00:00:04.944,0.000177639056346379,0,
00:00:04.948,-0.000845783913973719,0,
00:00:04.952,-0.00103150645736605,0,
00:00:04.956,-0.000633256277069449,0,
00:00:04.96,-8.25118477223441E-05,0,
00:00:04.964,0.00237736687995493,0,
00:00:04.968,-0.00156523962505162,0,
00:00:04.972,0.000737117195967585,0,
00:00:04.976,-0.00411514425650239,0,
00:00:04.98,-0.00094591302331537,0,
00:00:04.984,0.00642447313293815,0,
00:00:04.988,0.00120620988309383,0,
00:00:04.992,-0.00125682377256453,0,
00:00:04.996,-0.001720508094877,0,
00:00:05,-0.00111167260911316,0,
00:00:05.004,-0.000250561075517908,0,
00:00:05.008,0.00242929975502193,0,
00:00:05.012,-0.00143295410089195,0,
00:00:05.016,-0.00330760912038386,0,
00:00:05.02,0.00402502017095685,0,
00:00:05.024,-0.00163481419440359,0,
00:00:05.028,0.00136917666532099,0,
00:00:05.032,0.00109735748264939,0,
00:00:05.036,-7.28998702470562E-06,0,
00:00:05.04,-0.000749458093196154,0,
00:00:05.044,-0.000843437330331653,0,
00:00:05.048,-0.000497556466143578,0,
00:00:05.052,-5.12073820573278E-05,0,
00:00:05.056,0.000250249460805207,0,
00:00:05.06,0.000328679103404284,0,
00:00:05.064,-0.00183796940837055,0,
00:00:05.068,0.00205964432097971,0,
00:00:05.072,0.00575254997238517,0,
00:00:05.076,-0.00594599032774568,0,
00:00:05.08,-0.00223910878412426,0,
00:00:05.084,0.000215571315493435,0,
00:00:05.088,0.00123143289238214,0,
00:00:05.092,0.00323220901191235,0,
00:00:05.096,-0.00348679604940116,0,
00:00:05.1,0.000294443860184401,0,
00:00:05.104,0.00108880246989429,0,
00:00:05.108,0.000609946553595364,0,
00:00:05.112,-6.640084029641E-05,0,
00:00:05.116,-0.000446256017312407,0,
00:00:05.12,-0.00045794015750289,0,
00:00:05.124,-0.000248407246544957,0,
00:00:05.128,-5.83339397053351E-06,0,
00:00:05.132,0.000146016420330852,0,
00:00:05.136,0.000175781271536835,0,
00:00:05.14,0.00219506467692554,0,
00:00:05.144,-0.00193971442058682,0,
00:00:05.148,-0.00374626996926963,0,
00:00:05.152,0.0017446173587814,0,
00:00:05.156,0.0045151743106544,0,
00:00:05.16,-0.000791719241533428,0,
00:00:05.164,-0.00392780778929591,0,
00:00:05.168,0.000867155904415995,0,
00:00:05.172,0.00364486454054713,0,
00:00:05.176,-0.00125157320871949,0,
00:00:05.18,-0.00185372191481292,0,
00:00:05.184,-0.000830104807391763,0,
00:00:05.188,0.000254536716965958,0,
00:00:05.192,0.00284042884595692,0,
00:00:05.196,-0.00335900974459946,0,
00:00:05.2,0.000651108217425644,0,
00:00:05.204,0.00140613096300513,0,
00:00:05.208,0.000754636479541659,0,
00:00:05.212,-9.22284962143749E-05,0,
00:00:05.216,-0.000564324320293963,0,
00:00:05.22,-0.000580796506255865,0,
00:00:05.224,0.0017539095133543,0,
00:00:05.228,-0.0040701231919229,0,
00:00:05.232,0.000507006596308202,0,
00:00:05.236,0.00168053340166807,0,
00:00:05.24,0.00116879539564252,0,
00:00:05.244,0.000231631216593087,0,
00:00:05.248,-0.000430044863605872,0,
00:00:05.252,-0.000614298332948238,0,
00:00:05.256,-0.000438945426139981,0,
00:00:05.26,-0.000134713438455947,0,
00:00:05.264,0.000108474101580214,0,
00:00:05.268,0.000207753852009773,0,
00:00:05.272,0.000178171379957348,0,
00:00:05.276,8.49409188958816E-05,0,
00:00:05.28,-5.88994817007915E-06,0,
00:00:05.284,-5.64566726097837E-05,0,
00:00:05.288,0.0020139820408076,0,
00:00:05.292,-0.00201372196897864,0,
00:00:05.296,-0.00372605980373919,0,
00:00:05.3,0.00181121635250747,0,
00:00:05.304,0.00250453129410744,0,
00:00:05.308,0.00329570705071092,0,
00:00:05.312,-0.00425720168277621,0,
00:00:05.316,0.0014611859805882,0,
00:00:05.32,-0.00352340540848672,0,
00:00:05.324,0.00293273571878672,0,
00:00:05.328,-0.00240559852682054,0,
00:00:05.332,0.00125210895203054,0,
00:00:05.336,-0.000624834268819541,0,
00:00:05.34,0.00244867452420294,0,
00:00:05.344,0.00538735510781407,0,
00:00:05.348,-0.00658295629546046,0,
00:00:05.352,-0.00272661005146801,0,
00:00:05.356,5.31604928255547E-05,0,
00:00:05.36,0.00134632550179958,0,
00:00:05.364,0.00139333587139845,0,
00:00:05.368,0.000775095890276134,0,
00:00:05.372,6.78953583701514E-05,0,
00:00:05.376,-0.000375567440642044,0,
00:00:05.38,-0.000471368548460305,0,
00:00:05.384,-0.00239855539985001,0,
00:00:05.388,0.00187951128464192,0,
00:00:05.392,0.00379668432287872,0,
00:00:05.396,-0.00165076332632452,0,
00:00:05.4,-0.00443608639761806,0,
00:00:05.404,0.000828237331006676,0,
00:00:05.408,0.00392374489456415,0,
00:00:05.412,-0.000893214077223092,0,
00:00:05.416,-0.00367260002531111,0,
00:00:05.42,0.00123476563021541,0,
00:00:05.424,0.00392630277201533,0,
00:00:05.428,-0.00113908550702035,0,
00:00:05.432,-0.00396340480074286,0,
00:00:05.436,0.00311617460101843,0,
00:00:05.44,-0.000180065457243472,0,
00:00:05.444,-0.000756182242184877,0,
00:00:05.448,-0.000332974246703088,0,
00:00:05.452,0.000159432442160323,0,
00:00:05.456,0.00037189171416685,0,
00:00:05.46,0.00238296296447515,0,
00:00:05.464,-0.00393822276964784,0,
00:00:05.468,0.000268725532805547,0,
00:00:05.472,0.00131625344511122,0,
00:00:05.476,0.000881838612258434,0,
00:00:05.48,0.000110946675704326,0,
00:00:05.484,-0.000402391771785915,0,
00:00:05.488,-0.00051193666877225,0,
00:00:05.492,-0.000336841098032892,0,
00:00:05.496,-7.6562981121242E-05,0,
00:00:05.5,0.00011598539276747,0,
00:00:05.504,0.00018245073442813,0,
00:00:05.508,0.000144560472108424,0,
00:00:05.512,6.09152739343699E-05,0,
00:00:05.516,-1.3987139936944E-05,0,
00:00:05.52,-5.17594162374735E-05,0,
00:00:05.524,-5.16356922162231E-05,0,
00:00:05.528,-2.94060046144295E-05,0,
00:00:05.532,-3.79003995476523E-06,0,
00:00:05.536,1.28099463836406E-05,0,
00:00:05.54,1.70112598425476E-05,0,
00:00:05.544,1.21593302537804E-05,0,
00:00:05.548,4.09810490964446E-06,0,
00:00:05.552,-2.37687436310807E-06,0,
00:00:05.556,-5.14271687279688E-06,0,
00:00:05.56,-4.5512506403611E-06,0,
00:00:05.564,-2.25037933887506E-06,0,
00:00:05.568,-0.00207571825012565,0,
00:00:05.572,0.00197671004571021,0,
00:00:05.576,0.0016436098376289,0,
00:00:05.58,0.00225381716154516,0,
00:00:05.584,-0.00281782005913556,0,
00:00:05.588,-0.00266998563893139,0,
00:00:05.592,-0.000808099401183426,0,
00:00:05.596,0.000760675233323127,0,
00:00:05.6,0.00132845819462091,0,
00:00:05.604,-0.00103627739008516,0,
00:00:05.608,0.00235949316993356,0,
00:00:05.612,0.00145370757672936,0,
00:00:05.616,-0.000277890503639355,0,
00:00:05.62,-0.00126402801834047,0,
00:00:05.624,0.000825105584226549,0,
00:00:05.628,-0.0046937670558691,0,
00:00:05.632,0.000367889442713931,0,
00:00:05.636,0.0039832005277276,0,
00:00:05.64,-0.000451207422884181,0,
00:00:05.644,-0.00112718297168612,0,
00:00:05.648,-0.000485497002955526,0,
00:00:05.652,0.000203986550332047,0,
00:00:05.656,0.000489488709717989,0,
00:00:05.66,0.000395522656617686,0,
00:00:05.664,0.000132191169541329,0,
00:00:05.668,-0.000101553756394424,0,
00:00:05.672,-0.000206473501748405,0,
00:00:05.676,-0.00018455006647855,0,
00:00:05.68,-9.4618255388923E-05,0,
00:00:05.684,0.00207368563860655,0,
00:00:05.688,-0.00192255666479468,0,
00:00:05.692,-0.00157983205281198,0,
00:00:05.696,-0.00013596830831375,0,
00:00:05.7,-0.00122193456627429,0,
00:00:05.704,0.00299179973080754,0,
00:00:05.708,0.00432901596650481,0,
00:00:05.712,-0.00380824576131999,0,
00:00:05.716,-0.000817422347608954,0,
00:00:05.72,2.96820562653011E-05,0,
00:00:05.724,9.23254629014991E-05,0,
00:00:05.728,0.00207211961969733,0,
00:00:05.732,-0.00409778114408255,0,
00:00:05.736,0.00238851574249566,0,
00:00:05.74,-0.00255722948350012,0,
00:00:05.744,0.00141398329287767,0,
00:00:05.748,0.00171161442995071,0,
00:00:05.752,0.000662187987472862,0,
00:00:05.756,-0.000352909526554868,0,
00:00:05.76,-0.000789465149864554,0,
00:00:05.764,-0.000674417009577155,0,
00:00:05.768,-0.000290774740278721,0,
00:00:05.772,0.00215105246752501,0,
00:00:05.776,-0.00378510379232466,0,
00:00:05.78,0.000600808300077915,0,
00:00:05.784,0.00369606213644147,0,
00:00:05.788,-0.00093199365073815,0,
00:00:05.792,-0.00152058433741331,0,
00:00:05.796,-0.000661172554828227,0,
00:00:05.8,0.000230318764806725,0,
00:00:05.804,-0.00145329860970378,0,
00:00:05.808,0.00458489637821913,0,
00:00:05.812,-0.000119061827717815,0,
00:00:05.816,-0.00155261030886322,0,
00:00:05.82,-0.0012580748880282,0,
00:00:05.824,-0.000414359994465485,0,
00:00:05.828,0.000269185111392289,0,
00:00:05.832,0.000534640450496227,0,
00:00:05.836,0.000440825853729621,0,
00:00:05.84,0.000183476804522797,0,
00:00:05.844,-5.31961923115887E-05,0,
00:00:05.848,-0.000172373809618875,0,
00:00:05.852,-0.000169602339155972,0,
00:00:05.856,0.0019800600130111,0,
00:00:05.86,-0.0019868912640959,0,
00:00:05.864,-0.00367522984743118,0,
00:00:05.868,0.00185427698306739,0,
00:00:05.872,0.00252457894384861,0,
00:00:05.876,0.0012179221957922,0,
00:00:05.88,-0.000220130197703838,0,
00:00:05.884,-0.00096290628425777,0,
00:00:05.888,-0.000946466985624284,0,
00:00:05.892,-0.000497886794619262,0,
00:00:05.896,-1.10901407879282E-06,0,
00:00:05.9,0.000300971645629033,0,
00:00:05.904,0.00242939637973905,0,
00:00:05.908,-0.00174060754943639,0,
00:00:05.912,-0.00365268136374652,0,
00:00:05.916,0.00173647678457201,0,
00:00:05.92,0.00445106159895658,0,
00:00:05.924,-0.000861045904457569,0,
00:00:05.928,-0.00397042697295547,0,
00:00:05.932,0.000858447048813105,0,
00:00:05.936,0.00365971936844289,0,
00:00:05.94,-0.00122932274825871,0,
00:00:05.944,-0.00183670572005212,0,
00:00:05.948,-0.0028992397710681,0,
00:00:05.952,0.00430336454883218,0,
00:00:05.956,0.000424854981247336,0,
00:00:05.96,-0.000779107329435647,0,
00:00:05.964,-0.000705292681232095,0,
00:00:05.968,-0.000244015813223086,0,
00:00:05.972,0.000133607245516032,0,
00:00:05.976,0.000273849436780438,0,
00:00:05.98,0.000216821616049856,0,
00:00:05.984,7.64361539040692E-05,0,
00:00:05.988,-0.002121870405972,0,
00:00:05.992,0.00394950155168772,0,
00:00:05.996,-0.000425254227593541,0,
00:00:06,-0.00151240627747029,0,
00:00:06.004,-0.00102090055588633,0,
00:00:06.008,-0.00223426870070398,0,
00:00:06.012,0.0024035859387368,0,
00:00:06.016,0.00221155909821391,0,
00:00:06.02,0.000565287889912724,0,
00:00:06.024,0.00133536697831005,0,
00:00:06.028,-0.00519499368965626,0,
00:00:06.032,-0.000495095213409513,0,
00:00:06.036,0.00122120219748467,0,
00:00:06.04,0.00332431052811444,0,
00:00:06.044,-0.00344611355103552,0,
00:00:06.048,0.00236950232647359,0,
00:00:06.052,-0.00296529522165656,0,
00:00:06.056,0.0030339031945914,0,
00:00:06.06,-0.000546608702279627,0,
00:00:06.064,-0.00103653396945447,0,
00:00:06.068,-0.0004279553249944,0,
00:00:06.072,0.000205256859771907,0,
00:00:06.076,0.000469601305667311,0,
00:00:06.08,0.00038553198100999,0,
00:00:06.084,0.000141771452035755,0,
00:00:06.088,-7.92568680481054E-05,0,
00:00:06.092,-0.000183643787750043,0,
00:00:06.096,-0.0001700403081486,0,
00:00:06.1,-9.07595531316474E-05,0,
00:00:06.104,-5.98724182054866E-06,0,
00:00:06.108,4.60314040537924E-05,0,
00:00:06.112,5.66948401683476E-05,0,
00:00:06.116,3.86200699722394E-05,0,
00:00:06.12,1.14946305984631E-05,0,
00:00:06.124,-9.28548433876131E-06,0,
00:00:06.128,-1.74387132574338E-05,0,
00:00:06.132,-0.00209049135446548,0,
00:00:06.136,0.00404430786147714,0,
00:00:06.14,-0.000332525232806802,0,
00:00:06.144,-0.00146015908103436,0,
00:00:06.148,-0.00101461680606008,0,
00:00:06.152,-0.000181774143129587,0,
00:00:06.156,0.000397661729948595,0,
00:00:06.16,0.000547755276784301,0,
00:00:06.164,0.000380989629775286,0,
00:00:06.168,0.000106652005342767,0,
00:00:06.172,-0.000107014544482809,0,
00:00:06.176,0.00188611459452659,0,
00:00:06.18,-0.00213345442898571,0,
00:00:06.184,-0.00171441328711808,0,
00:00:06.188,-0.000168346203281544,0,
00:00:06.192,0.000895077362656593,0,
00:00:06.196,0.00108303886372596,0,
00:00:06.2,-0.00141179503407329,0,
00:00:06.204,0.00413899309933186,0,
00:00:06.208,-0.000646614644210786,0,
00:00:06.212,-0.00189180101733655,0,
00:00:06.216,-0.00133559014648199,0,
00:00:06.22,-0.000302486820146441,0,
00:00:06.224,0.000445184210548177,0,
00:00:06.228,0.000673123518936336,0,
00:00:06.232,0.000498082605190575,0,
00:00:06.236,-0.00190709775779396,0,
00:00:06.24,0.00187154556624591,0,
00:00:06.244,0.00349565269425511,0,
00:00:06.248,-0.00199584569782019,0,
00:00:06.252,-0.00258368393406272,0,
00:00:06.256,-0.00120357295963913,0,
00:00:06.26,0.000271259865257889,0,
00:00:06.264,0.00101360736880451,0,
00:00:06.268,0.000975163537077606,0,
00:00:06.272,0.000501404399983585,0,
00:00:06.276,-1.16006676762481E-05,0,
00:00:06.28,-0.00239348784089088,0,
00:00:06.284,0.00160980597138405,0,
00:00:06.288,0.00347914849407971,0,
00:00:06.292,-0.00393682066351175,0,
00:00:06.296,-0.000442577031208202,0,
00:00:06.3,0.000551332253962755,0,
00:00:06.304,0.000481795432278886,0,
00:00:06.308,0.00221936497837305,0,
00:00:06.312,-0.00207890453748405,0,
00:00:06.316,-0.00389007665216923,0,
00:00:06.32,0.00168512016534805,0,
00:00:06.324,0.00247027399018407,0,
00:00:06.328,0.00333802634850144,0,
00:00:06.332,-0.0021087049972266,0,
00:00:06.336,-0.00460488721728325,0,
00:00:06.34,0.00296501303091645,0,
00:00:06.344,-0.00206521525979042,0,
00:00:06.348,0.001513791969046,0,
00:00:06.352,0.00360350799746811,0,
00:00:06.356,-0.00156457466073334,0,
00:00:06.36,-0.00423379661515355,0,
00:00:06.364,0.000980875338427722,0,
00:00:06.368,0.00395670812577009,0,
00:00:06.372,-0.00095988844987005,0,
00:00:06.376,0.000374465773347765,0,
00:00:06.38,-0.00280143273994327,0,
00:00:06.384,-0.0014728638343513,0,
00:00:06.388,-0.00158953259233385,0,
00:00:06.392,0.00136700598523021,0,
00:00:06.396,0.00701999384909868,0,
00:00:06.4,0.000433322711614892,0,
00:00:06.404,-0.000383898033760488,0,
00:00:06.408,-0.00872642640024424,0,
00:00:06.412,0.000928560446482152,0,
00:00:06.416,0.00723792938515544,0,
00:00:06.42,0.000111235822259914,0,
00:00:06.424,0.00122746429406106,0,
00:00:06.428,-0.0253620482981205,0,
00:00:06.432,0.0154982376843691,0,
00:00:06.436,0.0109030054882169,0,
00:00:06.44,0.00699579110369086,0,
00:00:06.444,-0.00689096096903086,0,
00:00:06.448,-0.0122069101780653,0,
00:00:06.452,0.0021040712017566,0,
00:00:06.456,-0.000278292194707319,0,
00:00:06.46,0.00351717043668032,0,
00:00:06.464,0.00681927334517241,0,
00:00:06.468,-0.0033830211032182,0,
00:00:06.472,-0.00424610357731581,0,
00:00:06.476,-0.00174592866096646,0,
00:00:06.48,0.000699083844665438,0,
00:00:06.484,-0.0003049967053812,0,
00:00:06.488,0.00558384926989675,0,
00:00:06.492,0.000321884115692228,0,
00:00:06.496,-0.00165248580742627,0,
00:00:06.5,-0.00372015591710806,0,
00:00:06.504,0.00116708572022617,0,
00:00:06.508,0.00375546584837139,0,
00:00:06.512,-0.0013016025768593,0,
00:00:06.516,-0.00195257272571325,0,
00:00:06.52,0.0011823772219941,0,
00:00:06.524,-0.0017220921581611,0,
00:00:06.528,-0.00291002588346601,0,
00:00:06.532,0.00254465756006539,0,
00:00:06.536,0.0028416384011507,0,
00:00:06.54,0.00115970941260457,0,
00:00:06.544,0.00159187021199614,0,
00:00:06.548,-0.00528994807973504,0,
00:00:06.552,-0.00285567319951952,0,
00:00:06.556,0.00498623587191105,0,
00:00:06.56,0.000745733559597284,0,
00:00:06.564,-0.00504227075725794,0,
00:00:06.568,-0.00119723624084145,0,
00:00:06.572,0.0171401705592871,0,
00:00:06.576,5.89413684792817E-05,0,
00:00:06.58,-0.0192659050226212,0,
00:00:06.584,-0.0114734722301364,0,
00:00:06.588,0.00977055355906487,0,
00:00:06.592,0.0136087751016021,0,
00:00:06.596,0.0034405249170959,0,
00:00:06.6,-0.00678540719673038,0,
00:00:06.604,-0.000495546439196914,0,
00:00:06.608,0.00200328277423978,0,
00:00:06.612,-0.00282180029898882,0,
00:00:06.616,-0.00273666786961257,0,
00:00:06.62,-0.000851702701766044,0,
00:00:06.624,0.00289982929825783,0,
00:00:06.628,-0.000488392310217023,0,
00:00:06.632,-0.000419984484324232,0,
00:00:06.636,0.000344535248586908,0,
00:00:06.64,0.000715276459231973,0,
00:00:06.644,-0.00150947214569896,0,
00:00:06.648,0.00214284076355398,0,
00:00:06.652,0.00353224109858274,0,
00:00:06.656,-0.00213804794475436,0,
00:00:06.66,0.003444894682616,0,
00:00:06.664,-0.0155849931761622,0,
00:00:06.668,0.00318437721580267,0,
00:00:06.672,0.00706734461709857,0,
00:00:06.676,0.00634272349998355,0,
00:00:06.68,0.000368136883480474,0,
00:00:06.684,-0.0099689569324255,0,
00:00:06.688,-0.000459982227766886,0,
00:00:06.692,0.00234082760289311,0,
00:00:06.696,0.00402088090777397,0,
00:00:06.7,-0.0013494793092832,0,
00:00:06.704,-0.00205040047876537,0,
00:00:06.708,-0.000952501548454165,0,
00:00:06.712,0.000239939603488892,0,
00:00:06.716,0.00289496011100709,0,
00:00:06.72,-0.00121451285667717,0,
00:00:06.724,-0.00127919390797615,0,
00:00:06.728,-0.000225664611207321,0,
00:00:06.732,0.000562256900593638,0,
00:00:06.736,0.00072638550773263,0,
00:00:06.74,0.000444243894889951,0,
00:00:06.744,4.17884839407634E-05,0,
00:00:06.748,-0.000238288004766218,0,
00:00:06.752,-0.00031313014915213,0,
00:00:06.756,-0.000228340199100785,0,
00:00:06.76,-8.29610726214014E-05,0,
00:00:06.764,0.00211276905611157,0,
00:00:06.768,-0.0018841871060431,0,
00:00:06.772,-0.00155833165626973,0,
00:00:06.776,-0.00220933044329286,0,
00:00:06.78,0.00281939725391567,0,
00:00:06.784,0.0047216028906405,0,
00:00:06.788,-0.00119604426436126,0,
00:00:06.792,-0.00242187664844096,0,
00:00:06.796,-0.00151077180635184,0,
00:00:06.8,-0.000191656537936069,0,
00:00:06.804,0.000652452290523797,0,
00:00:06.808,0.00290207657963037,0,
00:00:06.812,-0.00143543840385973,0,
00:00:06.816,0.00262929406017065,0,
00:00:06.82,-0.0105434115976095,0,
00:00:06.824,0.00111595913767815,0,
00:00:06.828,0.00526889553293586,0,
00:00:06.832,0.00636894721537828,0,
00:00:06.836,0.00975503865629435,0,
00:00:06.84,-0.0126817794516683,0,
00:00:06.844,-0.0105935586616397,0,
00:00:06.848,0.000148274164530449,0,
00:00:06.852,0.00860750675201416,0,
00:00:06.856,-0.00379085470922291,0,
00:00:06.86,0.000726212281733751,0,
00:00:06.864,0.00480594485998154,0,
00:00:06.868,0.000255827500950545,0,
00:00:06.872,0.0134977148845792,0,
00:00:06.876,-0.0085976105183363,0,
00:00:06.88,-0.0387523248791695,0,
00:00:06.884,0.0196346510201693,0,
00:00:06.888,0.0242088623344898,0,
00:00:06.892,0.000843498855829239,0,
00:00:06.896,0.00251551298424602,0,
00:00:06.9,-0.0257114619016647,0,
00:00:06.904,-0.0120851807296276,0,
00:00:06.908,0.0223811659961939,0,
00:00:06.912,0.00406348286196589,0,
00:00:06.916,0.000471897248644382,0,
00:00:06.92,-0.00194458570331335,0,
00:00:06.924,-0.000468589598312974,0,
00:00:06.928,-0.00377153744921088,0,
00:00:06.932,-0.0022188788279891,0,
00:00:06.936,0.00021486499463208,0,
00:00:06.94,0.00163752993103117,0,
00:00:06.944,0.00171907199546695,0,
00:00:06.948,0.00304144201800227,0,
00:00:06.952,-0.00606201263144612,0,
00:00:06.956,0.00386815890669823,0,
00:00:06.96,0.00255980365909636,0,
00:00:06.964,0.00335440831258893,0,
00:00:06.968,-0.00439750403165817,0,
00:00:06.972,-0.0282228570431471,0,
00:00:06.976,0.0210759863257408,0,
00:00:06.98,0.0103144906461239,0,
00:00:06.984,0.0085500106215477,0,
00:00:06.988,-0.00410975981503725,0,
00:00:06.992,-0.0126431901007891,0,
00:00:06.996,-0.00469418009743094,0,
00:00:07,0.00102588068693876,0,
00:00:07.004,0.00347150024026632,0,
00:00:07.008,0.0032135013025254,0,
00:00:07.012,0.00368536380119622,0,
00:00:07.016,-0.00201568775810301,0,
00:00:07.02,-0.00263199326582253,0,
00:00:07.024,-0.00337003660388291,0,
00:00:07.028,0.00210929499007761,0,
00:00:07.032,0.00458204559981823,0,
00:00:07.036,0.00113492086529732,0,
00:00:07.04,-0.00609599426388741,0,
00:00:07.044,-0.000890963361598551,0,
00:00:07.048,-0.000691788736730814,0,
00:00:07.052,0.00568360975012183,0,
00:00:07.056,0.00264310440979898,0,
00:00:07.06,-0.0075536104850471,0,
00:00:07.064,0.00287938886322081,0,
00:00:07.068,0.000372107402654365,0,
00:00:07.072,0.00165539211593568,0,
00:00:07.076,-0.00234995130449533,0,
00:00:07.08,-0.00172317423857749,0,
00:00:07.084,-3.11692820105236E-05,0,
00:00:07.088,0.00105319172143936,0,
00:00:07.092,0.00117592257447541,0,
00:00:07.096,-0.00140425900463015,0,
00:00:07.1,0.00408900948241353,0,
00:00:07.104,-0.000711025204509497,0,
00:00:07.108,-0.00193801487330347,0,
00:00:07.112,-0.0013517253100872,0,
00:00:07.116,-0.000294237514026463,0,
00:00:07.12,0.00253990152850747,0,
00:00:07.124,-0.00128514051903039,0,
00:00:07.128,-0.00321109732612967,0,
00:00:07.132,0.00196698401123285,0,
00:00:07.136,0.0023759719915688,0,
00:00:07.14,0.00305246352218091,0,
00:00:07.144,-0.00238883378915489,0,
00:00:07.148,-0.00268787727691233,0,
00:00:07.152,-0.00110639468766749,0,
00:00:07.156,0.000413091154769063,0,
00:00:07.16,0.00109537621028721,0,
00:00:07.164,0.00304697197861969,0,
00:00:07.168,-0.0015344760613516,0,
00:00:07.172,-0.00172507285606116,0,
00:00:07.176,-0.00261918152682483,0,
00:00:07.18,0.00243757315911353,0,
00:00:07.184,0.00244203908368945,0,
00:00:07.188,0.00076635938603431,0,
00:00:07.192,-0.00067575549473986,0,
00:00:07.196,-0.00120591616723686,0,
00:00:07.2,-0.000947534979786724,0,
00:00:07.204,-0.000349539797753096,0,
00:00:07.208,0.00017458776710555,0,
00:00:07.212,0.00041880868957378,0,
00:00:07.216,0.000387610547477379,0,
00:00:07.22,0.00020525575382635,0,
00:00:07.224,0.00208703218959272,0,
00:00:07.228,-0.00208217767067254,0,
00:00:07.232,-0.00177208939567208,0,
00:00:07.236,-0.00234062457457185,0,
00:00:07.24,0.00279262429103255,0,
00:00:07.244,0.00476739555597305,0,
00:00:07.248,-0.00112751417327672,0,
00:00:07.252,-0.00236949999816716,0,
00:00:07.256,-0.00149034592323005,0,
00:00:07.26,-0.00227447203360498,0,
00:00:07.264,0.00260770064778626,0,
00:00:07.268,0.00452504260465503,0,
00:00:07.272,-0.00126869918312877,0,
00:00:07.276,-0.00236574281007051,0,
00:00:07.28,-0.00138789310585707,0,
00:00:07.284,-0.00215008389204741,0,
00:00:07.288,0.00477111199870706,0,
00:00:07.292,0.000504015712067485,0,
00:00:07.296,-0.000951376045122743,0,
00:00:07.3,-0.000936629192437977,0,
00:00:07.304,-0.000400257034925744,0,
00:00:07.308,-0.00198135827668011,0,
00:00:07.312,0.00229834509082139,0,
00:00:07.316,0.00193997495807707,0,
00:00:07.32,0.000318968028295785,0,
00:00:07.324,-0.000860421918332577,0,
00:00:07.328,-0.00113468838389963,0,
00:00:07.332,-0.000745461089536548,0,
00:00:07.336,-0.000152376524056308,0,
00:00:07.34,0.000286327674984932,0,
00:00:07.344,-0.00164248503278941,0,
00:00:07.348,0.00439024530351162,0,
00:00:07.352,-0.000192518840776756,0,
00:00:07.356,-0.00149997556582093,0,
00:00:07.36,-0.00114235677756369,0,
00:00:07.364,0.00176967063453048,0,
00:00:07.368,-0.00372244906611741,0,
00:00:07.372,0.000873971730470657,0,
00:00:07.376,-0.00019761937437579,0,
00:00:07.38,0.00521880434826016,0,
00:00:07.384,-0.000226529547944665,0,
00:00:07.388,-0.00204253196716309,0,
00:00:07.392,-0.00173304916825145,0,
00:00:07.396,0.00142325519118458,0,
00:00:07.4,-0.00168837513774633,0,
00:00:07.404,-0.000939495454076678,0,
00:00:07.408,0.000451208441518247,0,
00:00:07.412,-0.000929645146243274,0,
00:00:07.416,0.00297925784252584,0,
00:00:07.42,0.00414010137319565,0,
00:00:07.424,-0.00402073841542006,0,
00:00:07.428,0.00112272601108998,0,
00:00:07.432,-0.00405404390767217,0,
00:00:07.436,0.000467196980025619,0,
00:00:07.44,0.00152848416473716,0,
00:00:07.444,0.00102635473012924,0,
00:00:07.448,0.000186632794793695,0,
00:00:07.452,0.00170217850245535,0,
00:00:07.456,-0.00248255440965295,0,
00:00:07.46,-0.00198208261281252,0,
00:00:07.464,-0.000256258063018322,0,
00:00:07.468,0.000959059689193964,0,
00:00:07.472,0.00328832934610546,0,
00:00:07.476,-0.00119742949027568,0,
00:00:07.48,-0.00357349589467049,0,
00:00:07.484,0.00355944829061627,0,
00:00:07.488,4.81638053315692E-05,0,
00:00:07.492,-0.000792330713011324,0,
00:00:07.496,-0.000531878264155239,0,
00:00:07.5,-0.0021369990427047,0,
00:00:07.504,0.00220323447138071,0,
00:00:07.508,0.00398560054600239,0,
00:00:07.512,-0.00164739682804793,0,
00:00:07.516,-0.00248250155709684,0,
00:00:07.52,0.000777378270868212,0,
00:00:07.524,-0.00395232252776623,0,
00:00:07.528,0.00327729992568493,0,
00:00:07.532,-0.00167855434119701,0,
00:00:07.536,0.00186121196020395,0,
00:00:07.54,0.00168565043713897,0,
00:00:07.544,0.000355779018718749,0,
00:00:07.548,-0.000698511081282049,0,
00:00:07.552,-0.0010122605599463,0,
00:00:07.556,-0.000730593805201352,0,
00:00:07.56,0.00185021024663001,0,
00:00:07.564,-0.00386761431582272,0,
00:00:07.568,0.000686236657202244,0,
00:00:07.572,0.00384554453194141,0,
00:00:07.576,-0.000808080018032342,0,
00:00:07.58,-0.0014643669128418,0,
00:00:07.584,-0.00274430797435343,0,
00:00:07.588,0.00216430518776178,0,
00:00:07.592,0.00222106883302331,0,
00:00:07.596,0.000684792117681354,0,
00:00:07.6,-0.000633196614217013,0,
00:00:07.604,0.000970358902122825,0,
00:00:07.608,-0.00283011235296726,0,
00:00:07.612,-0.00194265379104763,0,
00:00:07.616,-1.43048168865789E-08,0,
00:00:07.62,0.00123575201723725,0,
00:00:07.624,0.00138399575371295,0,
00:00:07.628,0.000814778439234942,0,
00:00:07.632,-0.00198891176842153,0,
00:00:07.636,0.00364856468513608,0,
00:00:07.64,0.00121322111226618,0,
00:00:07.644,-0.00382243329659104,0,
00:00:07.648,-0.00487188249826431,0,
00:00:07.652,0.00168095028493553,0,
00:00:07.656,0.00303829158656299,0,
00:00:07.66,0.00189483596477658,0,
00:00:07.664,0.000242266047280282,0,
00:00:07.668,-0.000837692932691425,0,
00:00:07.672,0.000996162998490036,0,
00:00:07.676,-0.00477968854829669,0,
00:00:07.68,-0.00193385558668524,0,
00:00:07.684,0.00573160825297236,0,
00:00:07.688,0.00105245027225465,0,
00:00:07.692,-0.000981173710897565,0,
00:00:07.696,-0.00128470803610981,0,
00:00:07.7,-0.00075574079528451,0,
00:00:07.704,-8.81957603269257E-05,0,
00:00:07.708,0.000335247517796233,0,
00:00:07.712,0.000427006423706189,0,
00:00:07.716,0.000287732371361926,0,
00:00:07.72,7.68599566072226E-05,0,
00:00:07.724,-0.0021583205088973,0,
00:00:07.728,0.0039093722589314,0,
00:00:07.732,0.0016264523146674,0,
00:00:07.736,-0.00556748686358333,0,
00:00:07.74,-0.000678030599374324,0,
00:00:07.744,-0.00075584405567497,0,
00:00:07.748,0.00550902308896184,0,
00:00:07.752,-0.00165108952205628,0,
00:00:07.756,0.00257559726014733,0,
00:00:07.76,-0.00180365587584674,0,
00:00:07.764,-0.00215248879976571,0,
00:00:07.768,-0.000930312613490969,0,
00:00:07.772,0.00238414644263685,0,
00:00:07.776,-0.00107691646553576,0,
00:00:07.78,-0.00288995029404759,0,
00:00:07.784,0.00220320583321154,0,
00:00:07.788,0.0024517965503037,0,
00:00:07.792,0.00299657112918794,0,
00:00:07.796,-0.00457621552050114,0,
00:00:07.8,-0.000809995108284056,0,
00:00:07.804,0.00048788168351166,0,
00:00:07.808,0.00059178686933592,0,
00:00:07.812,0.00235824659466743,0,
00:00:07.816,-0.0040740454569459,0,
00:00:07.82,0.00224061403423548,0,
00:00:07.824,-0.000670018955133855,0,
00:00:07.828,-0.000694306509103626,0,
00:00:07.832,0.0021014369558543,0,
00:00:07.836,-0.00146329868584871,0,
00:00:07.84,-0.00109549495391548,0,
00:00:07.844,-0.00196480867452919,0,
00:00:07.848,0.00279864040203393,0,
00:00:07.852,0.00453544734045863,0,
00:00:07.856,-0.00140875799115747,0,
00:00:07.86,-0.0025631794705987,0,
00:00:07.864,-0.00155136489775032,0,
00:00:07.868,-0.00223226053640246,0,
00:00:07.872,0.00269204238429666,0,
00:00:07.876,0.00252204341813922,0,
00:00:07.88,0.000741430500056595,0,
00:00:07.884,-0.000726013444364071,0,
00:00:07.888,0.000841919216327369,0,
00:00:07.892,-0.0049933553673327,0,
00:00:07.896,0.00208576675504446,0,
00:00:07.9,-0.000306941568851471,0,
00:00:07.904,-0.000185018987394869,0,
00:00:07.908,0.00247584469616413,0,
00:00:07.912,-0.0034056652802974,0,
00:00:07.916,0.00081420864444226,0,
00:00:07.92,0.00367455021478236,0,
00:00:07.924,-0.00319075724110007,0,
00:00:07.928,0.000236544176004827,0,
00:00:07.932,0.00290178693830967,0,
00:00:07.936,-0.00369944120757282,0,
00:00:07.94,0.000137535476824269,0,
00:00:07.944,0.00103151157964021,0,
00:00:07.948,0.000658711767755449,0,
00:00:07.952,4.4236996473046E-05,0,
00:00:07.956,-0.000333605945343152,0,
00:00:07.96,0.00169052055571228,0,
00:00:07.964,-0.00427796225994825,0,
00:00:07.968,0.00238707452081144,0,
00:00:07.972,0.00168074260000139,0,
00:00:07.976,-0.00452351337298751,0,
00:00:07.98,0.000448457431048155,0,
00:00:07.984,0.00194758956786245,0,
00:00:07.988,0.00147855072282255,0,
00:00:07.992,0.000388163898605853,0,
00:00:07.996,0.00161253823898733,0,
00:00:08,-0.00273872213438153,0,
00:00:08.004,-0.00224357657134533,0,
00:00:08.008,-0.000416770839365199,0,
00:00:08.012,0.000923249928746372,0,
00:00:08.016,0.00126395595725626,0,
00:00:08.02,-0.0012177899479866,0,
00:00:08.024,0.00425793742761016,0,
00:00:08.028,-0.000622437975835055,0,
00:00:08.032,0.000142406046506949,0,
00:00:08.036,-0.00544885871931911,0,
00:00:08.04,-1.67249800142599E-05,0,
00:00:08.044,0.00189163803588599,0,
00:00:08.048,0.00169924856163561,0,
00:00:08.052,0.000701163604389876,0,
00:00:08.056,-0.000211095990380272,0,
00:00:08.06,-0.00064333324553445,0,
00:00:08.064,-0.000604146858677268,0,
00:00:08.068,-0.000310149043798447,0,
00:00:08.072,1.82881251475919E-06,0,
00:00:08.076,0.0022627601865679,0,
00:00:08.08,-0.00383458007127047,0,
00:00:08.084,-0.00160108308773488,0,
00:00:08.088,0.00970461871474981,0,
00:00:08.092,-0.0095314672216773,0,
00:00:08.096,0.00129397050477564,0,
00:00:08.1,0.00310023757629097,0,
00:00:08.104,0.00353470211848617,0,
00:00:08.108,-0.0024292825255543,0,
00:00:08.112,-0.00300359516404569,0,
00:00:08.116,-0.00139666069298983,0,
00:00:08.12,-0.00177093397360295,0,
00:00:08.124,0.00521765369921923,0,
00:00:08.128,-0.00127825024537742,0,
00:00:08.132,0.00110056134872139,0,
00:00:08.136,0.00062122690724209,0,
00:00:08.14,-0.000365918676834553,0,
00:00:08.144,0.00121151132043451,0,
00:00:08.148,-0.00480637233704329,0,
00:00:08.152,9.87315524980659E-06,0,
00:00:08.156,0.00364131201058626,0,
00:00:08.16,-0.000631129834800959,0,
00:00:08.164,0.000944431929383427,0,
00:00:08.168,-0.00650989636778831,0,
00:00:08.172,0.00471020769327879,0,
00:00:08.176,0.00170246954075992,0,
00:00:08.18,-0.0041784904897213,0,
00:00:08.184,0.00737835979089141,0,
00:00:08.188,-0.00138784328009933,0,
00:00:08.192,-0.00539535004645586,0,
00:00:08.196,-0.00217234785668552,0,
00:00:08.2,0.00550554087385535,0,
00:00:08.204,0.00086083629867062,0,
00:00:08.208,-0.00106284266803414,0,
00:00:08.212,0.000831214420031756,0,
00:00:08.216,-0.00261857663281262,0,
00:00:08.22,0.00046335521619767,0,
00:00:08.224,-0.00381657690741122,0,
00:00:08.228,-0.000450692576123402,0,
00:00:08.232,0.00473770452663302,0,
00:00:08.236,0.0074875121936202,0,
00:00:08.24,-0.00776898441836238,0,
00:00:08.244,0.00104711484164,0,
00:00:08.248,-0.00529676536098123,0,
00:00:08.252,0.0029904255643487,0,
00:00:08.256,0.00526872975751758,0,
00:00:08.26,0.00100243103224784,0,
00:00:08.264,-0.00461318669840693,0,
00:00:08.268,-0.0034156481269747,0,
00:00:08.272,-0.00671266298741102,0,
00:00:08.276,0.00748118339106441,0,
00:00:08.28,0.00901639461517334,0,
00:00:08.284,0.00196369946934283,0,
00:00:08.288,-0.00792210921645164,0,
00:00:08.292,-0.00339576276019216,0,
00:00:08.296,-0.00239474326372147,0,
00:00:08.3,0.00527063012123108,0,
00:00:08.304,0.00321424496360123,0,
00:00:08.308,-0.00662569468840957,0,
00:00:08.312,0.00155354256276041,0,
00:00:08.316,0.00267583318054676,0,
00:00:08.32,0.00531552778556943,0,
00:00:08.324,-0.00648244051262736,0,
00:00:08.328,-0.00249753519892693,0,
00:00:08.332,-0.00182462588418275,0,
00:00:08.336,0.00131763657554984,0,
00:00:08.34,0.00703483121469617,0,
00:00:08.344,-0.00157015398144722,0,
00:00:08.348,0.00378031213767827,0,
00:00:08.352,-0.00686729373410344,0,
00:00:08.356,-0.00450233882293105,0,
00:00:08.36,0.00451436219736934,0,
00:00:08.364,0.00336538092233241,0,
00:00:08.368,-0.00403937883675098,0,
00:00:08.372,0.00210721488110721,0,
00:00:08.376,-0.00281140650622547,0,
00:00:08.38,0.00128682260401547,0,
00:00:08.384,-0.000384292652597651,0,
00:00:08.388,0.00682020885869861,0,
00:00:08.392,-0.00885402411222458,0,
00:00:08.396,0.00412022182717919,0,
00:00:08.4,0.00107314635533839,0,
00:00:08.404,0.00131428835447878,0,
00:00:08.408,-0.00319771305657923,0,
00:00:08.412,-0.00244635832495987,0,
00:00:08.416,-0.000310346717014909,0,
00:00:08.42,0.00119486998300999,0,
00:00:08.424,0.00152610638178885,0,
00:00:08.428,0.00308046489953995,0,
00:00:08.432,-0.00382809131406248,0,
00:00:08.436,-2.35743009397993E-05,0,
00:00:08.44,0.000908435089513659,0,
00:00:08.444,0.000579142943024635,0,
00:00:08.448,-1.18897708034638E-06,0,
00:00:08.452,0.00172058760654181,0,
00:00:08.456,-0.00236718589439988,0,
00:00:08.46,-0.00394351780414581,0,
00:00:08.464,0.00177993986289948,0,
00:00:08.468,0.0067546060308814,0,
00:00:08.472,-0.0067464797757566,0,
00:00:08.476,-0.00151443225331604,0,
00:00:08.48,0.00607098639011383,0,
00:00:08.484,0.000753750384319574,0,
00:00:08.488,0.000444851350039244,0,
00:00:08.492,-0.00590631132945418,0,
00:00:08.496,-0.00067276693880558,0,
00:00:08.5,0.00144576269667596,0,
00:00:08.504,-0.000479327194625512,0,
00:00:08.508,0.00490983109921217,0,
00:00:08.512,-0.000294775323709473,0,
00:00:08.516,0.000166802914463915,0,
00:00:08.52,-0.00558954244479537,0,
00:00:08.524,-0.00225508003495634,0,
00:00:08.528,0.00584477419033647,0,
00:00:08.532,0.00135143438819796,0,
00:00:08.536,0.00135391962248832,0,
00:00:08.54,-0.0031486744992435,0,
00:00:08.544,-0.00242824666202068,0,
00:00:08.548,-0.000369201763533056,0,
00:00:08.552,0.0031498852185905,0,
00:00:08.556,-0.00265625817701221,0,
00:00:08.56,-0.000832704768981785,0,
00:00:08.564,0.00362398335710168,0,
00:00:08.568,0.00438809162005782,0,
00:00:08.572,-0.00213937950320542,0,
00:00:08.576,-0.00329167814925313,0,
00:00:08.58,-0.0019219487439841,0,
00:00:08.584,-0.00220188754610717,0,
00:00:08.588,0.00296299648471177,0,
00:00:08.592,0.002827093238011,0,
00:00:08.596,0.000939817924518138,0,
00:00:08.6,0.00140231137629598,0,
00:00:08.604,-0.00533971423283219,0,
00:00:08.608,-0.000702843593899161,0,
00:00:08.612,-0.00101052329409868,0,
00:00:08.616,0.00316499290056527,0,
00:00:08.62,0.00434596790000796,0,
00:00:08.624,-0.0017766630044207,0,
00:00:08.628,-0.00280682579614222,0,
00:00:08.632,-0.00156934466212988,0,
00:00:08.636,-7.4784479693335E-06,0,
00:00:08.64,0.00298863719217479,0,
00:00:08.644,-0.000949970039073378,0,
00:00:08.648,-0.00309798237867653,0,
00:00:08.652,0.00189472362399101,0,
00:00:08.656,0.00429856218397617,0,
00:00:08.66,-0.00321075436659157,0,
00:00:08.664,-0.00430035218596458,0,
00:00:08.668,0.00852169096469879,0,
00:00:08.672,-0.00053572392789647,0,
00:00:08.676,-0.00105245655868202,0,
00:00:08.68,-0.00638985261321068,0,
00:00:08.684,-0.000237177111557685,0,
00:00:08.688,0.00430262787267566,0,
00:00:08.692,0.000237662141444162,0,
00:00:08.696,-0.00263028917834163,0,
00:00:08.7,0.00379952625371516,0,
00:00:08.704,-0.000207937016966753,0,
00:00:08.708,-0.00121006951667368,0,
00:00:08.712,-0.00292802532203496,0,
00:00:08.716,0.00387103389948606,0,
00:00:08.72,-0.00212768372148275,0,
00:00:08.724,0.00298662693239748,0,
00:00:08.728,-0.00107951450627297,0,
00:00:08.732,-0.00158340448979288,0,
00:00:08.736,-0.000713952002115548,0,
00:00:08.74,0.00021589947573375,0,
00:00:08.744,-0.00141535385046154,0,
00:00:08.748,0.00258037494495511,0,
00:00:08.752,0.00192800781223923,0,
00:00:08.756,0.00221252487972379,0,
00:00:08.76,-0.00304082920774817,0,
00:00:08.764,-0.00290771131403744,0,
00:00:08.768,-0.00095407891785726,0,
00:00:08.772,0.000730437343008816,0,
00:00:08.776,0.0013787419302389,0,
00:00:08.78,0.00111527903936803,0,
00:00:08.784,0.000442342075984925,0,
00:00:08.788,-0.00016541536024306,0,
00:00:08.792,-0.00253823003731668,0,
00:00:08.796,0.00153194705490023,0,
00:00:08.8,0.00347367348149419,0,
00:00:08.804,-0.00182185356970876,0,
00:00:08.808,-0.00236940570175648,0,
00:00:08.812,-0.00520914187654853,0,
00:00:08.816,0.0063411109149456,0,
00:00:08.82,0.00228718831203878,0,
00:00:08.824,-0.000378838827600703,0,
00:00:08.828,-0.00141681963577867,0,
00:00:08.832,-0.00124988076277077,0,
00:00:08.836,-0.000548368494492024,0,
00:00:08.84,0.000120046504889615,0,
00:00:08.844,0.000464491051388904,0,
00:00:08.848,0.00254166102968156,0,
00:00:08.852,-0.0058619286864996,0,
00:00:08.856,0.00234090792946517,0,
00:00:08.86,0.00506437430158257,0,
00:00:08.864,-0.00301046762615442,0,
00:00:08.868,0.00163986382540315,0,
00:00:08.872,-0.00197241781279445,0,
00:00:08.876,0.000295940437354147,0,
00:00:08.88,-0.00446041068062186,0,
00:00:08.884,0.00101370108313859,0,
00:00:08.888,0.0024797460064292,0,
00:00:08.892,0.00175928580574691,0,
00:00:08.896,-0.0016587182180956,0,
00:00:08.9,0.00347195006906986,0,
00:00:08.904,0.000838030013255775,0,
00:00:08.908,-0.00620748335495591,0,
00:00:08.912,-0.000944936298765242,0,
00:00:08.916,-0.000683128659147769,0,
00:00:08.92,0.00575261702761054,0,
00:00:08.924,0.00274095847271383,0,
00:00:08.928,-0.00331481941975653,0,
00:00:08.932,-0.00517150573432446,0,
00:00:08.936,0.00105058797635138,0,
00:00:08.94,0.00457068579271436,0,
00:00:08.944,-0.000333843112457544,0,
00:00:08.948,-0.00344749726355076,0,
00:00:08.952,0.00114253687206656,0,
00:00:08.956,0.00367527501657605,0,
00:00:08.96,-0.00345673249103129,0,
00:00:08.964,0.00202857260592282,0,
00:00:08.968,-0.00128334865439683,0,
00:00:08.972,-0.00125053036026657,0,
00:00:08.976,0.00184449483640492,0,
00:00:08.98,-0.00556870456784964,0,
00:00:08.984,0.00514425616711378,0,
00:00:08.988,0.00164390739519149,0,
00:00:08.992,0.00174737186171114,0,
00:00:08.996,-0.00506895454600453,0,
00:00:09,0.00153781403787434,0,
00:00:09.004,-0.000893738411832601,0,
00:00:09.008,-0.00263196160085499,0,
00:00:09.012,0.00227706832811236,0,
00:00:09.016,0.00445848796516657,0,
00:00:09.02,-0.00115435139741749,0,
00:00:09.024,-0.00429633958265185,0,
00:00:09.028,0.00274146092124283,0,
00:00:09.032,-0.000416455353843048,0,
00:00:09.036,-0.000808751443400979,0,
00:00:09.04,-0.000254626938840374,0,
00:00:09.044,0.00028112146537751,0,
00:00:09.048,0.000466855708509684,0,
00:00:09.052,0.00242158607579768,0,
00:00:09.056,-0.0039491131901741,0,
00:00:09.06,0.000233561688219197,0,
00:00:09.064,-0.000793782994151115,0,
00:00:09.068,0.0049139279872179,0,
00:00:09.072,-0.000224266026634723,0,
00:00:09.076,0.000217268810956739,0,
00:00:09.08,-0.00764719769358635,0,
00:00:09.084,0.00179483077954501,0,
00:00:09.088,0.00758165447041392,0,
00:00:09.092,-0.00209067459218204,0,
00:00:09.096,-0.00545607507228851,0,
00:00:09.1,0.000446003337856382,0,
00:00:09.104,2.52070767601253E-05,0,
00:00:09.108,0.00353956129401922,0,
00:00:09.112,0.00204408494755626,0,
00:00:09.116,0.0017805325333029,0,
00:00:09.12,-0.00357869709841907,0,
00:00:09.124,-0.00324932299554348,0,
00:00:09.128,-0.0010164906270802,0,
00:00:09.132,-0.0012079750886187,0,
00:00:09.136,-0.00267340755090117,0,
00:00:09.14,0.0109116267412901,0,
00:00:09.144,0.0119333909824491,0,
00:00:09.148,-0.0100399740040302,0,
00:00:09.152,-0.0108212735503912,0,
00:00:09.156,-0.00615334929898381,0,
00:00:09.16,0.00412624189630151,0,
00:00:09.164,0.00226149777881801,0,
00:00:09.168,0.0123251331970096,0,
00:00:09.172,0.000211002639844082,0,
00:00:09.176,-0.00651143910363317,0,
00:00:09.18,-0.00230495841242373,0,
00:00:09.184,0.00166176480706781,0,
00:00:09.188,-0.00162496534176171,0,
00:00:09.192,-0.00318368687294424,0,
00:00:09.196,0.00430247979238629,0,
00:00:09.2,0.000731907086446881,0,
00:00:09.204,-0.0003989587421529,0,
00:00:09.208,0.00162042153533548,0,
00:00:09.212,-0.00424294034019113,0,
00:00:09.216,0.000370453519281,0,
00:00:09.22,0.00159072002861649,0,
00:00:09.224,0.00111868244130164,0,
00:00:09.228,0.000210309022804722,0,
00:00:09.232,-0.00250949594192207,0,
00:00:09.236,0.00344117172062397,0,
00:00:09.24,-0.000766601704526693,0,
00:00:09.244,-0.0015963080804795,0,
00:00:09.248,-0.00298655079677701,0,
00:00:09.252,0.00407258607447147,0,
00:00:09.256,-0.00183567707426846,0,
00:00:09.26,0.00321862334385514,0,
00:00:09.264,-0.000976698356680572,0,
00:00:09.268,0.000477632856927812,0,
00:00:09.272,-0.00276576704345644,0,
00:00:09.276,-0.00358155951835215,0,
00:00:09.28,0.000335612916387618,0,
00:00:09.284,0.00713277142494917,0,
00:00:09.288,0.00117554923053831,0,
00:00:09.292,-0.0016917084576562,0,
00:00:09.296,-9.36246578930877E-05,0,
00:00:09.3,-0.00539858732372522,0,
00:00:09.304,9.02189349289984E-05,0,
00:00:09.308,0.00197423552162945,0,
00:00:09.312,0.00381766771897674,0,
00:00:09.316,-0.003337666625157,0,
00:00:09.32,0.000119335229101125,0,
00:00:09.324,-0.00126006023492664,0,
00:00:09.328,0.00653955200687051,0,
00:00:09.332,-0.00243279407732189,0,
00:00:09.336,-0.00765051320195198,0,
00:00:09.34,0.00447104498744011,0,
00:00:09.344,0.00180240510962904,0,
00:00:09.348,-0.00190526596270502,0,
00:00:09.352,0.00143492862116545,0,
00:00:09.356,0.00104257604107261,0,
00:00:09.36,0.0019162381067872,0,
00:00:09.364,-0.00284869666211307,0,
00:00:09.368,-0.00666197575628757,0,
00:00:09.372,0.00126550521235913,0,
00:00:09.376,0.0123809212818742,0,
00:00:09.38,0.00158650998491794,0,
00:00:09.384,-0.0156099898740649,0,
00:00:09.388,-0.00046739203389734,0,
00:00:09.392,0.00664607482030988,0,
00:00:09.396,0.00412760861217976,0,
00:00:09.4,-0.00417162477970123,0,
00:00:09.404,-0.000506704847794026,0,
00:00:09.408,0.000696634175255895,0,
00:00:09.412,-0.00352312927134335,0,
00:00:09.416,0.0020319449249655,0,
00:00:09.42,0.00711131328716874,0,
00:00:09.424,0.00174866116140038,0,
00:00:09.428,0.00291713653132319,0,
00:00:09.432,-0.0168579630553722,0,
00:00:09.436,-0.00418444955721498,0,
00:00:09.44,0.00377177074551582,0,
00:00:09.444,-0.000217320368392393,0,
00:00:09.448,0.00608429592102766,0,
00:00:09.452,0.0184412766247988,0,
00:00:09.456,0.000992979505099356,0,
00:00:09.46,-0.0229900926351547,0,
00:00:09.464,-0.00830849912017584,0,
00:00:09.468,0.00914186425507069,0,
00:00:09.472,0.0034548188559711,0,
00:00:09.476,0.00129638751968741,0,
00:00:09.48,0.0024637277238071,0,
00:00:09.484,-0.00414471887052059,0,
00:00:09.488,-1.35880400193855E-05,0,
00:00:09.492,0.00105974089819938,0,
00:00:09.496,0.000704154605045915,0,
00:00:09.5,2.57189076364739E-05,0,
00:00:09.504,-0.000413246481912211,0,
00:00:09.508,-0.00048244945355691,0,
00:00:09.512,-0.000299735635053366,0,
00:00:09.516,-0.00212791585363448,0,
00:00:09.52,-0.00412983493879437,0,
00:00:09.524,0.0139706563204527,0,
00:00:09.528,0.00553727801889181,0,
00:00:09.532,-0.015263787470758,0,
00:00:09.536,-0.00508036511018872,0,
00:00:09.54,0.00151693378575146,0,
00:00:09.544,0.00394363235682249,0,
00:00:09.548,0.00331911514513195,0,
00:00:09.552,0.00139142910484225,0,
00:00:09.556,-0.000376997486455366,0,
00:00:09.56,0.000818534288555384,0,
00:00:09.564,-0.0052804434671998,0,
00:00:09.568,-0.000347521621733904,0,
00:00:09.572,-0.000675218470860273,0,
00:00:09.576,0.0033206504303962,0,
00:00:09.58,0.00431746989488602,0,
00:00:09.584,0.000169620761880651,0,
00:00:09.588,-0.00491728074848652,0,
00:00:09.592,-0.00329248351044953,0,
00:00:09.596,-0.000199318252271041,0,
00:00:09.6,0.00178595341276377,0,
00:00:09.604,2.09995687328046E-05,0,
00:00:09.608,0.00118283391930163,0,
00:00:09.612,0.0100352223962545,0,
00:00:09.616,-0.00675053102895617,0,
00:00:09.62,-0.00232683354988694,0,
00:00:09.624,-0.00331905833445489,0,
00:00:09.628,-0.000813425227534026,0,
00:00:09.632,-0.000636474811471999,0,
00:00:09.636,0.00413117790594697,0,
00:00:09.64,0.00320779462344944,0,
00:00:09.644,-0.00142880529165268,0,
00:00:09.648,0.000708722393028438,0,
00:00:09.652,0.00397342769429088,0,
00:00:09.656,-0.00508542498573661,0,
00:00:09.66,-0.00453780265524983,0,
00:00:09.664,-0.00314064580015838,0,
00:00:09.668,0.00364945316687226,0,
00:00:09.672,0.00622745277360082,0,
00:00:09.676,0.00209916639141738,0,
00:00:09.68,-0.00597645109519362,0,
00:00:09.684,-0.00341318175196648,0,
00:00:09.688,0.00276245432905853,0,
00:00:09.692,0.00491653336212039,0,
00:00:09.696,-0.00312781380489469,0,
00:00:09.7,-0.000396613992052153,0,
00:00:09.704,0.00220413133502007,0,
00:00:09.708,-0.00407666945829988,0,
00:00:09.712,0.000146058271639049,0,
00:00:09.716,0.00128124433103949,0,
00:00:09.72,0.0030270554125309,0,
00:00:09.724,-0.00173541181720793,0,
00:00:09.728,-0.00191939261276275,0,
00:00:09.732,-0.0026872034650296,0,
00:00:09.736,0.00457731541246176,0,
00:00:09.74,-0.00147834629751742,0,
00:00:09.744,-0.00500538013875484,0,
00:00:09.748,0.0130113689228892,0,
00:00:09.752,0.00297510111704469,0,
00:00:09.756,-0.00706125283613801,0,
00:00:09.76,-0.0132555663585663,0,
00:00:09.764,-0.00315392948687077,0,
00:00:09.768,0.0161882098764181,0,
00:00:09.772,0.00254171597771347,0,
00:00:09.776,-0.00457323435693979,0,
00:00:09.78,-0.000967471743933856,0,
00:00:09.784,7.08794905222021E-05,0,
00:00:09.788,8.98679500096478E-05,0,
00:00:09.792,-0.000101241668744478,0,
00:00:09.796,-0.00226582423783839,0,
00:00:09.8,0.0018334852065891,0,
00:00:09.804,0.00368625554256141,0,
00:00:09.808,-0.00173707935027778,0,
00:00:09.812,-0.00238722027279437,0,
00:00:09.816,0.000952197122387588,0,
00:00:09.82,-0.00380046502687037,0,
00:00:09.824,-0.000798813882283866,0,
00:00:09.828,0.00642274413257837,0,
00:00:09.832,0.00114963948726654,0,
00:00:09.836,-0.00129585911054164,0,
00:00:09.84,0.00035877974005416,0,
00:00:09.844,-0.00305195013061166,0,
00:00:09.848,-0.00392615236341953,0,
00:00:09.852,0.00218165013939142,0,
00:00:09.856,0.00511324126273394,0,
00:00:09.86,-0.00244163069874048,0,
00:00:09.864,-0.00181600986979902,0,
00:00:09.868,0.00449057854712009,0,
00:00:09.872,0.00165631540585309,0,
00:00:09.876,-0.00390151888132095,0,
00:00:09.88,-0.00521390838548541,0,
00:00:09.884,0.00136182305868715,0,
00:00:09.888,0.00497008441016078,0,
00:00:09.892,-4.4866006646771E-05,0,
00:00:09.896,-0.00749361841008067,0,
00:00:09.9,-0.00117888976819813,0,
00:00:09.904,0.0190003588795662,0,
00:00:09.908,0.0040974048897624,0,
00:00:09.912,-0.0182340126484632,0,
00:00:09.916,-0.00704154558479786,0,
00:00:09.92,0.00325703201815486,0,
00:00:09.924,-0.00139320513699204,0,
00:00:09.928,0.00879669096320868,0,
00:00:09.932,0.00330295204184949,0,
00:00:09.936,-0.00265173777006567,0,
00:00:09.94,0.00177854544017464,0,
00:00:09.944,-0.00250157620757818,0,
00:00:09.948,-0.00468233693391085,0,
00:00:09.952,0.000908439396880567,0,
00:00:09.956,0.00206583086401224,0,
00:00:09.96,0.00130002829246223,0,
00:00:09.964,0.00226130662485957,0,
00:00:09.968,-0.00249289954081178,0,
00:00:09.972,-0.00229878141544759,0,
00:00:09.976,-0.00267083733342588,0,
00:00:09.98,0.00274195801466703,0,
00:00:09.984,0.00283799157477915,0,
00:00:09.988,0.00105194374918938,0,
00:00:09.992,-0.000575060490518808,0,
00:00:09.996,-0.00125591084361076,0,
00:00:10,-0.00106408924330026,0,
00:00:10.004,-0.000455027387943119,0,
00:00:10.008,0.000120797885756474,0,
00:00:10.012,-0.00165748212020844,0,
00:00:10.016,0.00239376653917134,0,
00:00:10.02,-0.000192578198038973,0,
00:00:10.024,0.00633861171081662,0,
00:00:10.028,-0.00532789388671517,0,
00:00:10.032,-0.000220310699660331,0,
00:00:10.036,-0.0043355212546885,0,
00:00:10.04,0.0031277141533792,0,
00:00:10.044,-0.00168514356482774,0,
00:00:10.048,-0.000121014039905276,0,
00:00:10.052,0.00794972293078899,0,
00:00:10.056,-0.00182956911157817,0,
00:00:10.06,-0.00373169174417853,0,
00:00:10.064,-0.0021897479891777,0,
00:00:10.068,-9.08454458112828E-05,0,
00:00:10.072,0.00324383331462741,0,
00:00:10.076,-0.00271310494281352,0,
00:00:10.08,-0.000935790478251874,0,
00:00:10.084,0.00147859752178192,0,
00:00:10.088,0.00842962507158518,0,
00:00:10.092,-0.00243723345920444,0,
00:00:10.096,-0.00470738159492612,0,
00:00:10.1,-0.00290430150926113,0,
00:00:10.104,-0.000296176702249795,0,
00:00:10.108,0.00138010713271797,0,
00:00:10.112,0.00379570806398988,0,
00:00:10.116,-0.00291917193681002,0,
00:00:10.12,0.000603033287916332,0,
00:00:10.124,-0.000978979631327093,0,
00:00:10.128,0.00447900639846921,0,
00:00:10.132,-0.00269637885503471,0,
00:00:10.136,0.00198822002857924,0,
00:00:10.14,-0.00185818085446954,0,
00:00:10.144,-0.0039403778500855,0,
00:00:10.148,0.0034889851231128,0,
00:00:10.152,0.000233746017329395,0,
00:00:10.156,-0.000482461706269532,0,
00:00:10.16,-0.000245768838794902,0,
00:00:10.164,-0.00196716049686074,0,
00:00:10.168,0.00224219472147524,0,
00:00:10.172,0.00393566023558378,0,
00:00:10.176,-0.00380201730877161,0,
00:00:10.18,0.00150720321107656,0,
00:00:10.184,-0.00373222632333636,0,
00:00:10.188,0.000616339209955186,0,
00:00:10.192,0.00358907622285187,0,
00:00:10.196,-0.00105359172448516,0,
00:00:10.2,-0.00156743114348501,0,
00:00:10.204,-0.000618930789642036,0,
00:00:10.208,-0.00382948713377118,0,
00:00:10.212,0.00673841265961528,0,
00:00:10.216,0.001896130037494,0,
00:00:10.22,0.00101314822677523,0,
00:00:10.224,-0.00809494405984879,0,
00:00:10.228,0.00290644355118275,0,
00:00:10.232,0.000647941662464291,0,
00:00:10.236,-0.00011412658932386,0,
00:00:10.24,-0.000162860233103856,0,
00:00:10.244,8.47607225296088E-07,0,
00:00:10.248,0.000127071267343126,0,
00:00:10.252,0.000146330945426598,0,
00:00:10.256,8.78142964211293E-05,0,
00:00:10.26,9.68215044849785E-06,0,
00:00:10.264,-0.00211991998367012,0,
00:00:10.268,0.00399229442700744,0,
00:00:10.272,-0.000376432843040675,0,
00:00:10.276,-0.00148089986760169,0,
00:00:10.28,-0.00101305556017905,0,
00:00:10.284,0.00190789811313152,0,
00:00:10.288,-0.00156252621673048,0,
00:00:10.292,-0.00108491990249604,0,
00:00:10.296,-0.00394563050940633,0,
00:00:10.3,0.00697262398898602,0,
00:00:10.304,0.00430032424628735,0,
00:00:10.308,-0.00490189297124743,0,
00:00:10.312,-0.00368294585496187,0,
00:00:10.316,0.00185491470620036,0,
00:00:10.32,0.00410530809313059,0,
00:00:10.324,0.00275673810392618,0,
00:00:10.328,-0.00828099716454744,0,
00:00:10.332,-0.00246593402698636,0,
00:00:10.336,0.00143810850568116,0,
00:00:10.34,0.00272092339582741,0,
00:00:10.344,1.00600864243461E-05,0,
00:00:10.348,0.000610758899711072,0,
00:00:10.352,0.00524791562929749,0,
00:00:10.356,0.00512293539941311,0,
00:00:10.36,-0.011149862781167,0,
00:00:10.364,-0.00749112013727427,0,
00:00:10.368,0.00435666646808386,0,
00:00:10.372,0.000867841125000268,0,
00:00:10.376,0.00389096466824412,0,
00:00:10.38,0.00246400199830532,0,
00:00:10.384,-0.00201372941955924,0,
00:00:10.388,0.000494431820698082,0,
00:00:10.392,0.0019856586586684,0,
00:00:10.396,-0.00497064832597971,0,
00:00:10.4,0.0013434833381325,0,
00:00:10.404,-0.00113505439367145,0,
00:00:10.408,-0.00272281561046839,0,
00:00:10.412,0.00444619869813323,0,
00:00:10.416,-0.00147306837607175,0,
00:00:10.42,0.00134311325382441,0,
00:00:10.424,0.000998609350062907,0,
00:00:10.428,-9.04667831491679E-05,0,
00:00:10.432,-0.000779655936639756,0,
00:00:10.436,-0.000825933064334095,0,
00:00:10.44,0.00161761965136975,0,
00:00:10.444,-0.00406652549281716,0,
00:00:10.448,0.00267772283405066,0,
00:00:10.452,-0.000181306997546926,0,
00:00:10.456,-0.000394881964894012,0,
00:00:10.46,-0.00199586502276361,0,
00:00:10.464,0.00237184157595038,0,
00:00:10.468,-5.37923951924313E-05,0,
00:00:10.472,0.00439064158126712,0,
00:00:10.476,-0.00124319666065276,0,
00:00:10.48,-0.0047602541744709,0,
00:00:10.484,0.00428443774580956,0,
00:00:10.488,-0.00268931966274977,0,
00:00:10.492,-0.00243025459349155,0,
00:00:10.496,-0.00227316142991185,0,
00:00:10.5,0.00545438658446074,0,
00:00:10.504,0.00135733804199845,0,
00:00:10.508,-0.000420922180637717,0,
00:00:10.512,-0.00294663873501122,0,
00:00:10.516,0.00131050660274923,0,
00:00:10.52,0.0034518709871918,0,
00:00:10.524,-0.00174457801040262,0,
00:00:10.528,-0.00436622370034456,0,
00:00:10.532,0.000949262059293687,0,
00:00:10.536,0.00193919951561838,0,
00:00:10.54,0.00111310835927725,0,
00:00:10.544,2.6183826776105E-05,0,
00:00:10.548,-0.00267994473688304,0,
00:00:10.552,0.00130511517636478,0,
00:00:10.556,0.00333162792958319,0,
00:00:10.56,0.000244623515754938,0,
00:00:10.564,-0.00633676815778017,0,
00:00:10.568,-0.000616907724179327,0,
00:00:10.572,0.00393265066668391,0,
00:00:10.576,-0.00202585943043232,0,
00:00:10.58,0.00141355628147721,0,
00:00:10.584,0.00355767947621644,0,
00:00:10.588,-0.00157046294771135,0,
00:00:10.592,-0.00216928217560053,0,
00:00:10.596,-0.00310511793941259,0,
00:00:10.6,0.00216491403989494,0,
00:00:10.604,0.00243568769656122,0,
00:00:10.608,0.00300958682782948,0,
00:00:10.612,-0.00244573270902038,0,
00:00:10.616,-0.00270479870960116,0,
00:00:10.62,-0.00315345264971256,0,
00:00:10.624,0.00243953941389918,0,
00:00:10.628,0.00485927751287818,0,
00:00:10.632,-0.00080216652713716,0,
00:00:10.636,-0.00204152008518577,0,
00:00:10.64,-0.00129934772849083,0,
00:00:10.644,-0.00224483502097428,0,
00:00:10.648,0.00460619386285543,0,
00:00:10.652,0.000367297179764137,0,
00:00:10.656,-0.00101348245516419,0,
00:00:10.66,-0.00300438329577446,0,
00:00:10.664,0.00162063504103571,0,
00:00:10.668,0.00178443593904376,0,
00:00:10.672,0.000528853503055871,0,
00:00:10.676,-0.00261535891331732,0,
00:00:10.68,0.00315460492856801,0,
00:00:10.684,-0.000997051713056862,0,
00:00:10.688,0.000410436274250969,0,
00:00:10.692,-0.00488912733271718,0,
00:00:10.696,-0.00158743362408131,0,
00:00:10.7,0.00620546843856573,0,
00:00:10.704,0.00137656764127314,0,
00:00:10.708,0.00117124326061457,0,
00:00:10.712,-0.00337485247291625,0,
00:00:10.716,-0.00258292909711599,0,
00:00:10.72,-0.00249150395393372,0,
00:00:10.724,0.00308610801585019,0,
00:00:10.728,0.00310646067373455,0,
00:00:10.732,0.00322153838351369,0,
00:00:10.736,-0.00260701426304877,0,
00:00:10.74,-0.00302200019359589,0,
00:00:10.744,-0.00342864915728569,0,
00:00:10.748,0.00230594235472381,0,
00:00:10.752,0.00278973765671253,0,
00:00:10.756,0.00125843973364681,0,
00:00:10.76,-0.000304568820865825,0,
00:00:10.764,-0.00106249924283475,0,
00:00:10.768,-0.000998168718069792,0,
00:00:10.772,-0.000491766899358481,0,
00:00:10.776,3.98437987314537E-05,0,
00:00:10.78,0.000346248649293557,0,
00:00:10.784,0.000382531725335866,0,
00:00:10.788,0.000241791844018735,0,
00:00:10.792,5.64159163332079E-05,0,
00:00:10.796,-7.60528273531236E-05,0,
00:00:10.8,-0.000120876684377436,0,
00:00:10.804,-9.52274494920857E-05,0,
00:00:10.808,-3.9370141166728E-05,0,
00:00:10.812,-0.0020656012929976,0,
00:00:10.816,0.00201009144075215,0,
00:00:10.82,0.00582781154662371,0,
00:00:10.824,-0.00583020271733403,0,
00:00:10.828,-0.0021493430249393,0,
00:00:10.832,0.000251604040386155,0,
00:00:10.836,0.00122059916611761,0,
00:00:10.84,0.00112286175135523,0,
00:00:10.844,0.000531874364241958,0,
00:00:10.848,-5.66675844311249E-05,0,
00:00:10.852,-0.000377833668608218,0,
00:00:10.856,-0.000401282450184226,0,
00:00:10.86,-0.000240472931182012,0,
00:00:10.864,-4.16774273617193E-05,0,
00:00:10.868,9.33017290662974E-05,0,
00:00:10.872,0.000132565197418444,0,
00:00:10.876,-0.0019770204089582,0,
00:00:10.88,0.00616351561620831,0,
00:00:10.884,-0.00439979834482074,0,
00:00:10.888,0.000904822547454387,0,
00:00:10.892,-0.00156640249770135,0,
00:00:10.896,-0.00290195550769567,0,
00:00:10.9,0.00237952475436032,0,
00:00:10.904,0.00264688348397613,0,
00:00:10.908,0.00105072685983032,0,
00:00:10.912,0.001597058493644,0,
00:00:10.916,-0.00313345692120492,0,
00:00:10.92,-0.00265907007269561,0,
00:00:10.924,0.00143557251431048,0,
00:00:10.928,-0.0031271071638912,0,
00:00:10.932,0.00173716514836997,0,
00:00:10.936,0.00248813955113292,0,
00:00:10.94,0.0013371758395806,0,
00:00:10.944,0.00200323155149817,0,
00:00:10.948,-0.00494443299248815,0,
00:00:10.952,-0.000644375453703105,0,
00:00:10.956,0.000874859106261283,0,
00:00:10.96,0.00299790943972766,0,
00:00:10.964,-0.00155083916615695,0,
00:00:10.968,-0.00377730163745582,0,
00:00:10.972,0.00150095007847995,0,
00:00:10.976,0.00219597341492772,0,
00:00:10.98,0.00105827627703547,0,
00:00:10.984,-0.00020494352793321,0,
00:00:10.988,0.00122742797248065,0,
00:00:10.992,-0.00487253023311496,0,
00:00:10.996,-8.6556923633907E-05,0,
00:00:11,0.00148111011367291,0,
00:00:11.004,0.0012950066011399,0,
00:00:11.008,0.000498690060339868,0,
00:00:11.012,-0.000193332554772496,0,
00:00:11.016,-0.000496270367875695,0,
00:00:11.02,-0.000440812902525067,0,
00:00:11.024,-0.000205874312086962,0,
00:00:11.028,2.7327383577358E-05,0,
00:00:11.032,0.000155593195813708,0,
00:00:11.036,0.00224112742580473,0,
00:00:11.04,-0.00187470321543515,0,
00:00:11.044,-0.0016223257407546,0,
00:00:11.048,-0.000213082967093214,0,
00:00:11.052,0.000789542158599943,0,
00:00:11.056,0.000987237086519599,0,
00:00:11.06,0.000614988442976028,0,
00:00:11.064,8.72883902047761E-05,0,
00:00:11.068,-0.00236116955056787,0,
00:00:11.072,0.00365693704225123,0,
00:00:11.076,-0.00270352396182716,0,
00:00:11.08,-0.00167746772058308,0,
00:00:11.084,0.0047154501080513,0,
00:00:11.088,0.00184862746391445,0,
00:00:11.092,-0.00377886579371989,0,
00:00:11.096,-0.00308337854221463,0,
00:00:11.1,-0.000606389832682908,0,
00:00:11.104,0.00123663223348558,0,
00:00:11.108,0.00173499644733965,0,
00:00:11.112,-0.000867875816766173,0,
00:00:11.116,0.00437731621786952,0,
00:00:11.12,-0.000695075374096632,0,
00:00:11.124,-0.0020902743563056,0,
00:00:11.128,-0.00153803767170757,0,
00:00:11.132,-0.000420934055000544,0,
00:00:11.136,-0.0016492698341608,0,
00:00:11.14,0.00269608083181083,0,
00:00:11.144,0.002206074539572,0,
00:00:11.148,-0.00168171699624509,0,
00:00:11.152,0.00312188128009439,0,
00:00:11.156,0.000484407995827496,0,
00:00:11.16,-0.00636391807347536,0,
00:00:11.164,-0.000884959474205971,0,
00:00:11.168,0.00157303595915437,0,
00:00:11.172,0.00188471318688244,0,
00:00:11.176,0.00110901950392872,0,
00:00:11.18,0.000147810540511273,0,
00:00:11.184,-0.000472265266580507,0,
00:00:11.188,-0.000620060309302062,0,
00:00:11.192,-0.000430700660217553,0,
00:00:11.196,-0.000129209875012748,0,
00:00:11.2,0.000105613653431647,0,
00:00:11.204,-0.00187681219540536,0,
00:00:11.208,0.00421976577490568,0,
00:00:11.212,-0.000254596117883921,0,
00:00:11.216,-0.00147269817534834,0,
00:00:11.22,-0.0010746824555099,0,
00:00:11.224,-0.000243847724050283,0,
00:00:11.228,0.000361065816832706,0,
00:00:11.232,0.000541771994903684,0,
00:00:11.236,0.002471256069839,0,
00:00:11.24,-0.00392421707510948,0,
00:00:11.244,0.00231694779358804,0,
00:00:11.248,-0.000694599701091647,0,
00:00:11.252,-0.00285867764614522,0,
00:00:11.256,0.00398055929690599,0,
00:00:11.26,-0.00196021003648639,0,
00:00:11.264,0.00311433919705451,0,
00:00:11.268,-0.00104979402385652,0,
00:00:11.272,-0.00164112844504416,0,
00:00:11.276,0.00126672210171819,0,
00:00:11.28,-0.00184148526750505,0,
00:00:11.284,-0.00102362688630819,0,
00:00:11.288,-0.00164949207101017,0,
00:00:11.292,0.00312617560848594,0,
00:00:11.296,0.00265587493777275,0,
00:00:11.3,0.000602478859946132,0,
00:00:11.304,0.00108159321825951,0,
00:00:11.308,-0.00553082069382072,0,
00:00:11.312,-0.00282079330645502,0,
00:00:11.316,0.00309965549968183,0,
00:00:11.32,0.00499887485057116,0,
00:00:11.324,-0.00317536969669163,0,
00:00:11.328,0.0016159302322194,0,
00:00:11.332,-0.00186889048200101,0,
00:00:11.336,-0.0037198755890131,0,
00:00:11.34,0.00373216508887708,0,
00:00:11.344,0.000366400548955426,0,
00:00:11.348,-0.000484678283100948,0,
00:00:11.352,-0.000333392556058243,0,
00:00:11.356,-0.00207079388201237,0,
00:00:11.36,0.00217209430411458,0,
00:00:11.364,0.00183888897299767,0,
00:00:11.368,0.000265648006461561,0,
00:00:11.372,-0.000870470248628408,0,
00:00:11.376,-0.00111953623127192,0,
00:00:11.38,0.00135145476087928,0,
00:00:11.384,-0.00211315252818167,0,
00:00:11.388,-0.00135166721884161,0,
00:00:11.392,0.000252299505518749,0,
00:00:11.396,0.00117491476703435,0,
00:00:11.4,0.00116267090197653,0,
00:00:11.404,0.00266884593293071,0,
00:00:11.408,-0.00409158272668719,0,
00:00:11.412,-8.69336508912966E-05,0,
00:00:11.416,0.000989735242910683,0,
00:00:11.42,0.00278618815355003,0,
00:00:11.424,-0.0018722441745922,0,
00:00:11.428,-0.00402924139052629,0,
00:00:11.432,0.00139605044387281,0,
00:00:11.436,0.00429729651659727,0,
00:00:11.44,-0.000826326198875904,0,
00:00:11.444,-0.0017571032512933,0,
00:00:11.448,-0.00097456166986376,0,
00:00:11.452,0.00210327887907624,0,
00:00:11.456,-0.00139007717370987,0,
00:00:11.46,-0.00310081569477916,0,
00:00:11.464,0.00213410938158631,0,
00:00:11.468,0.00456636399030685,0,
00:00:11.472,-0.0009715705527924,0,
00:00:11.476,-0.00417073490098119,0,
00:00:11.48,0.000689557637088001,0,
00:00:11.484,0.00150524859782308,0,
00:00:11.488,0.00282947369851172,0,
00:00:11.492,-0.00211506290361285,0,
00:00:11.496,-0.00430524349212646,0,
00:00:11.5,0.00124389468692243,0,
00:00:11.504,0.00429826695472002,0,
00:00:11.508,-0.000728080689441413,0,
00:00:11.512,-0.00371613353490829,0,
00:00:11.516,0.00107975862920284,0,
00:00:11.52,0.00169307575561106,0,
00:00:11.524,0.000743406359106302,0,
00:00:11.528,-0.00233708345331252,0,
00:00:11.532,0.00125342141836882,0,
00:00:11.536,0.00515485508367419,0,
00:00:11.54,-0.00613055424764752,0,
00:00:11.544,-0.00208144006319344,0,
00:00:11.548,0.000516969943419099,0,
00:00:11.552,0.00149271904956549,0,
00:00:11.556,0.00128420419059694,0,
00:00:11.56,0.000559872307348996,0,
00:00:11.564,-0.000118501135148108,0,
00:00:11.568,-0.000465651450213045,0,
00:00:11.572,-0.000466622848762199,0,
00:00:11.576,-0.000264642148977146,0,
00:00:11.58,-3.14124008582439E-05,0,
00:00:11.584,0.000119282056402881,0,
00:00:11.588,0.000156570284161717,0,
00:00:11.592,0.000111295768874697,0,
00:00:11.596,3.70762354577892E-05,0,
00:00:11.6,-2.22364615183324E-05,0,
00:00:11.604,-4.7370558604598E-05,0,
00:00:11.608,-4.17243973060977E-05,0,
00:00:11.612,-2.05025517061586E-05,0,
00:00:11.616,7.13565839305375E-07,0,
00:00:11.62,1.28139208754874E-05,0,
00:00:11.624,1.43860170283006E-05,0,
00:00:11.628,9.12586347112665E-06,0,
00:00:11.632,-0.00207365048117936,0,
00:00:11.636,0.00404822546988726,0,
00:00:11.64,-0.000337848468916491,0,
00:00:11.644,-0.00146860058885068,0,
00:00:11.648,-0.00102125597186387,0,
00:00:11.652,-0.0022602875251323,0,
00:00:11.656,0.00237370911054313,0,
00:00:11.66,0.00219223438762128,0,
00:00:11.664,0.00263619865290821,0,
00:00:11.668,-0.000634288473520428,0,
00:00:11.672,-0.00475186621770263,0,
00:00:11.676,-0.00263992371037602,0,
00:00:11.68,0.000425103964516893,0,
00:00:11.684,0.00209842761978507,0,
00:00:11.688,0.00207560579292476,0,
00:00:11.692,-0.00100872851908207,0,
00:00:11.696,0.00399994058534503,0,
00:00:11.7,-0.00105564517434686,0,
00:00:11.704,-0.00228887889534235,0,
00:00:11.708,-0.00363327213563025,0,
00:00:11.712,0.00164789380505681,0,
00:00:11.716,0.00218800408765674,0,
00:00:11.72,0.000981192803010345,0,
00:00:11.724,-0.000252154131885618,0,
00:00:11.728,0.0012471079826355,0,
00:00:11.732,-0.00480452971532941,0,
00:00:11.736,-1.03005313576432E-05,0,
00:00:11.74,0.00360946636646986,0,
00:00:11.744,-0.000662452366668731,0,
00:00:11.748,-0.00322866369970143,0,
00:00:11.752,0.00365940434858203,0,
00:00:11.756,-0.00208167405799031,0,
00:00:11.76,0.00108752690721303,0,
00:00:11.764,0.00104697968345135,0,
00:00:11.768,0.00425831833854318,0,
00:00:11.772,-0.00661101331934333,0,
00:00:11.776,-0.00202686456032097,0,
00:00:11.78,0.00083936273586005,0,
00:00:11.784,0.00179471669252962,0,
00:00:11.788,-0.000660774589050561,0,
00:00:11.792,0.00456775911152363,0,
00:00:11.796,-0.000587369373533875,0,
00:00:11.8,-0.00206622411496937,0,
00:00:11.804,-0.00156540609896183,0,
00:00:11.808,-0.000462094758404419,0,
00:00:11.812,0.000397238589357585,0,
00:00:11.816,-0.00136375345755368,0,
00:00:11.82,0.00254677818156779,0,
00:00:11.824,-0.000202906157937832,0,
00:00:11.828,0.00207750429399312,0,
00:00:11.832,0.00264998083002865,0,
00:00:11.836,-0.00304379407316446,0,
00:00:11.84,-0.00323600834235549,0,
00:00:11.844,-0.00129850278608501,0,
00:00:11.848,0.000569649389944971,0,
00:00:11.852,0.00142725754994899,0,
00:00:11.856,0.0033603145275265,0,
00:00:11.86,-0.00343186687678099,0,
00:00:11.864,0.000277613056823611,0,
00:00:11.868,0.00310338730923831,0,
00:00:11.872,-0.00350939924828708,0,
00:00:11.876,-0.00185638468246907,0,
00:00:11.88,0.00505261076614261,0,
00:00:11.884,-0.00184042472392321,0,
00:00:11.888,0.00254010665230453,0,
00:00:11.892,-0.0017398347845301,0,
00:00:11.896,-0.00412021484225988,0,
00:00:11.9,0.00322174513712525,0,
00:00:11.904,3.74801238649525E-05,0,
00:00:11.908,-0.000548588577657938,0,
00:00:11.912,-0.000205161253688857,0,
00:00:11.916,0.00227099563926458,0,
00:00:11.92,-0.0037075337022543,0,
00:00:11.924,0.000589210714679211,0,
00:00:11.928,-0.000539546948857605,0,
00:00:11.932,0.00291274557821453,0,
00:00:11.936,0.00375785655342042,0,
00:00:11.94,-0.00439416989684105,0,
00:00:11.944,0.000958394608460367,0,
00:00:11.948,-0.00191742484457791,0,
00:00:11.952,0.000753087166231126,0,
00:00:11.956,-0.00605206051841378,0,
00:00:11.96,0.00327151152305305,0,
00:00:11.964,0.00415922095999122,0,
00:00:11.968,0.00181132252328098,0,
00:00:11.972,0.00148239149712026,0,
00:00:11.976,-0.00370333855971694,0,
00:00:11.98,-0.00321924593299627,0,
00:00:11.984,-0.000927945016883314,0,
00:00:11.988,0.00093552062753588,0,
00:00:11.992,0.00366996298544109,0,
00:00:11.996,-0.00488654337823391,0,
00:00:12,0.00484312465414405,0,
00:00:12.004,0.000911134527996182,0,
00:00:12.008,-0.000981425167992711,0,
00:00:12.012,-0.0013313228264451,0,
00:00:12.016,0.00123144185636193,0,
00:00:12.02,-0.0042165145277977,0,
00:00:12.024,-0.00143868511077017,0,
00:00:12.028,0.00595775991678238,0,
00:00:12.032,0.00101336906664073,0,
00:00:12.036,-0.00116446882020682,0,
00:00:12.04,0.000599336402956396,0,
00:00:12.044,-0.00492236204445362,0,
00:00:12.048,0.000223320806981064,0,
00:00:12.052,0.00184254825580865,0,
00:00:12.056,0.00150836352258921,0,
00:00:12.06,0.000519060413353145,0,
00:00:12.064,0.00177321501541883,0,
00:00:12.068,-0.00261351722292602,0,
00:00:12.072,-0.00426032720133662,0,
00:00:12.076,-0.000518429616931826,0,
00:00:12.08,0.00658202217891812,0,
00:00:12.084,0.00314499787054956,0,
00:00:12.088,-0.00552511448040605,0,
00:00:12.092,-0.00151282455772161,0,
00:00:12.096,0.000368142122169957,0,
00:00:12.1,0.000878972641658038,0,
00:00:12.104,0.000666300766170025,0,
00:00:12.108,0.000233226906857453,0,
00:00:12.112,-0.000110176282760222,0,
00:00:12.116,-0.000249641860136762,0,
00:00:12.12,-0.000213696926948614,0,
00:00:12.124,-9.4866736617405E-05,0,
00:00:12.128,1.84377004188718E-05,0,
00:00:12.132,0.0021539400331676,0,
00:00:12.136,-0.00189526611939073,0,
00:00:12.14,-0.00367087149061263,0,
00:00:12.144,0.00180574040859938,0,
00:00:12.148,0.00246592424809933,0,
00:00:12.152,0.00117851293180138,0,
00:00:12.156,-0.000231377358431928,0,
00:00:12.16,-0.00302864401601255,0,
00:00:12.164,0.00312280934303999,0,
00:00:12.168,-0.000816045678220689,0,
00:00:12.172,-0.00145927432458848,0,
00:00:12.176,-0.000719743897207081,0,
00:00:12.18,0.000163630305905826,0,
00:00:12.184,0.00270223640836775,0,
00:00:12.188,-0.00344024249352515,0,
00:00:12.192,0.00272935093380511,0,
00:00:12.196,-0.00258647021837533,0,
00:00:12.2,0.00323363160714507,0,
00:00:12.204,-0.00263019395060837,0,
00:00:12.208,-0.00127181399147958,0,
00:00:12.212,0.00510978791862726,0,
00:00:12.216,0.00202237721532583,0,
00:00:12.22,-0.00176571984775364,0,
00:00:12.224,-0.0114792212843895,0,
00:00:12.228,0.00555698573589325,0,
00:00:12.232,0.00389215117320418,0,
00:00:12.236,0.00351905426941812,0,
00:00:12.24,-0.00447939475998282,0,
00:00:12.244,-0.00088860746473074,0,
00:00:12.248,0.000367674685548991,0,
00:00:12.252,0.000497297907713801,0,
00:00:12.256,0.000236052364925854,0,
00:00:12.26,-2.76917962764855E-05,0,
00:00:12.264,-0.00222657155245543,0,
00:00:12.268,0.00391243677586317,0,
00:00:12.272,-0.000392347137676552,0,
00:00:12.276,-0.00352072436362505,0,
00:00:12.28,0.00516834855079651,0,
00:00:12.284,-0.0024329605512321,0,
00:00:12.288,-0.0026752867270261,0,
00:00:12.292,-0.000643077655695379,0,
00:00:12.296,0.0010258104884997,0,
00:00:12.3,0.00151279882993549,0,
00:00:12.304,-0.00309295975603163,0,
00:00:12.308,0.00837170146405697,0,
00:00:12.312,-0.0030914235394448,0,
00:00:12.316,-0.00153701985254884,0,
00:00:12.32,-0.00295172608457506,0,
00:00:12.324,0.00156643486116081,0,
00:00:12.328,0.00577379995957017,0,
00:00:12.332,-0.00561984768137336,0,
00:00:12.336,-0.00392520381137729,0,
00:00:12.34,0.00247001042589545,0,
00:00:12.344,0.00505567016080022,0,
00:00:12.348,-0.00275177205912769,0,
00:00:12.352,0.00203179148957133,0,
00:00:12.356,0.000405912374844775,0,
00:00:12.36,-0.00780526688322425,0,
00:00:12.364,-0.000253303587669507,0,
00:00:12.368,0.0076794782653451,0,
00:00:12.372,0.00380919245071709,0,
00:00:12.376,-0.00136005517560989,0,
00:00:12.38,-0.00583533989265561,0,
00:00:12.384,-0.00955470558255911,0,
00:00:12.388,0.0103676747530699,0,
00:00:12.392,0.00123562512453645,0,
00:00:12.396,0.00371356913819909,0,
00:00:12.4,-0.0039806654676795,0,
00:00:12.404,0.00121424556709826,0,
00:00:12.408,-0.00404451508074999,0,
00:00:12.412,0.000405677332310006,0,
00:00:12.416,0.00145124923437834,0,
00:00:12.42,0.000976857496425509,0,
00:00:12.424,0.00225388305261731,0,
00:00:12.428,-0.00232756417244673,0,
00:00:12.432,-0.00211836933158338,0,
00:00:12.436,0.00158251204993576,0,
00:00:12.44,-0.00327789993025362,0,
00:00:12.444,0.0035503760445863,0,
00:00:12.448,-0.00385508849285543,0,
00:00:12.452,0.00770043721422553,0,
00:00:12.456,-0.00297754281200469,0,
00:00:12.46,-0.000932051218114793,0,
00:00:12.464,-0.00234712194651365,0,
00:00:12.468,0.00601973803713918,0,
00:00:12.472,-0.00236551184207201,0,
00:00:12.476,-0.00519163999706507,0,
00:00:12.48,0.00289295148104429,0,
00:00:12.484,0.00246534147299826,0,
00:00:12.488,-0.00818041898310184,0,
00:00:12.492,0.00655920011922717,0,
00:00:12.496,0.00514108827337623,0,
00:00:12.5,-0.00204764725640416,0,
00:00:12.504,-0.00537800928577781,0,
00:00:12.508,-0.00201030727475882,0,
00:00:12.512,0.00765965506434441,0,
00:00:12.516,-0.00322780013084412,0,
00:00:12.52,-0.00082621822366491,0,
00:00:12.524,0.000131534790853038,0,
00:00:12.528,0.000332743191393092,0,
00:00:12.532,0.000217903347220272,0,
00:00:12.536,0.00212100567296147,0,
00:00:12.54,-0.00204098271206021,0,
00:00:12.544,-0.00173315685242414,0,
00:00:12.548,-0.000236050575040281,0,
00:00:12.552,-0.00331922364421189,0,
00:00:12.556,0.00707880035042763,0,
00:00:12.56,0.00405076611787081,0,
00:00:12.564,-0.00107873405795544,0,
00:00:12.568,-0.00992184318602085,0,
00:00:12.572,0.00258230324834585,0,
00:00:12.576,0.00765557447448373,0,
00:00:12.58,-0.0195291880518198,0,
00:00:12.584,0.015648553147912,0,
00:00:12.588,0.00517224753275514,0,
00:00:12.592,-0.00130250595975667,0,
00:00:12.596,-0.00360588682815433,0,
00:00:12.6,-0.0030009828042239,0,
00:00:12.604,-0.00120614538900554,0,
00:00:12.608,-0.00166915031149983,0,
00:00:12.612,0.00108067865949124,0,
00:00:12.616,0.0109666492789984,0,
00:00:12.62,-0.00558289187029004,0,
00:00:12.624,-0.00358368619345129,0,
00:00:12.628,-0.00315033318474889,0,
00:00:12.632,0.00678956136107445,0,
00:00:12.636,-0.00104093784466386,0,
00:00:12.64,-2.39740911638364E-05,0,
00:00:12.644,-0.00693512102589011,0,
00:00:12.648,0.000736001529730856,0,
00:00:12.652,0.0102473832666874,0,
00:00:12.656,-0.00447004847228527,0,
00:00:12.66,-0.00163145072292536,0,
00:00:12.664,0.00866050273180008,0,
00:00:12.668,-0.00485981488600373,0,
00:00:12.672,-0.00791148468852043,0,
00:00:12.676,0.00388760701753199,0,
00:00:12.68,-0.00316612049937248,0,
00:00:12.684,-0.000513903563842177,0,
00:00:12.688,0.00678646797314286,0,
00:00:12.692,0.00355552509427071,0,
00:00:12.696,-0.00520128151401877,0,
00:00:12.7,-0.00144621974322945,0,
00:00:12.704,-0.00187334453221411,0,
00:00:12.708,0.00259151216596365,0,
00:00:12.712,0.00208472833037376,0,
00:00:12.716,-0.0017780038760975,0,
00:00:12.72,0.00102004921063781,0,
00:00:12.724,0.00250252895057201,0,
00:00:12.728,-0.00256980443373322,0,
00:00:12.732,-0.00261350069195032,0,
00:00:12.736,-0.000872474629431963,0,
00:00:12.74,0.00483764335513115,0,
00:00:12.744,-0.00887221843004227,0,
00:00:12.748,0.00371447741053998,0,
00:00:12.752,0.00501591758802533,0,
00:00:12.756,0.00415742537006736,0,
00:00:12.76,-0.00287488009780645,0,
00:00:12.764,-0.00388310709968209,0,
00:00:12.768,-0.00629412801936269,0,
00:00:12.772,0.00806835666298866,0,
00:00:12.776,0.00262630567885935,0,
00:00:12.78,-0.00559080112725496,0,
00:00:12.784,0.00123145885299891,0,
00:00:12.788,-0.00279418774880469,0,
00:00:12.792,0.00389425549656153,0,
00:00:12.796,-0.00178322743158787,0,
00:00:12.8,-0.000718902738299221,0,
00:00:12.804,0.00522668845951557,0,
00:00:12.808,0.0038949812296778,0,
00:00:12.812,-0.0102787828072906,0,
00:00:12.816,0.000864867877680808,0,
00:00:12.82,0.000228661927394569,0,
00:00:12.824,0.000698963354807347,0,
00:00:12.828,-0.00111072859726846,0,
00:00:12.832,0.00480559654533863,0,
00:00:12.836,0.00202737050130963,0,
00:00:12.84,-0.00565914204344153,0,
00:00:12.844,-0.00104088790249079,0,
00:00:12.848,0.000941149017307907,0,
00:00:12.852,0.00122581259347498,0,
00:00:12.856,-0.00136745895724744,0,
00:00:12.86,0.00411779712885618,0,
00:00:12.864,-0.00066604430321604,0,
00:00:12.868,0.00019910727860406,0,
00:00:12.872,-0.00119078124407679,0,
00:00:12.876,-0.00802083779126406,0,
00:00:12.88,0.000537273939698935,0,
00:00:12.884,0.0107637215405703,0,
00:00:12.888,0.000409327942179516,0,
00:00:12.892,-0.00297896913252771,0,
00:00:12.896,-0.000580561929382384,0,
00:00:12.9,-0.00717859715223312,0,
00:00:12.904,0.000586142065003514,0,
00:00:12.908,0.0102085471153259,0,
00:00:12.912,-0.00231502414681017,0,
00:00:12.916,0.000693443056661636,0,
00:00:12.92,-0.00301162363030016,0,
00:00:12.924,-0.00022290472406894,0,
00:00:12.928,-0.00651709036901593,0,
00:00:12.932,0.00744681991636753,0,
00:00:12.936,0.000494135892949998,0,
00:00:12.94,-0.00324268150143325,0,
00:00:12.944,0.00120825995691121,0,
00:00:12.948,0.00162600784096867,0,
00:00:12.952,0.00265463814139366,0,
00:00:12.956,-0.0065635209903121,0,
00:00:12.96,0.00146121066063643,0,
00:00:12.964,0.00449003744870424,0,
00:00:12.968,0.00102100754156709,0,
00:00:12.972,-0.00624644197523594,0,
00:00:12.976,-0.000975986011326313,0,
00:00:12.98,0.00348568917252123,0,
00:00:12.984,-0.000235848085139878,0,
00:00:12.988,0.00145900272764266,0,
00:00:12.992,-0.00825160369277,0,
00:00:12.996,0.0067518912255764,0,
00:00:13,0.00321572553366423,0,
00:00:13.004,0.00410927133634686,0,
00:00:13.008,-0.0098177595064044,0,
00:00:13.012,-0.00114266888704151,0,
00:00:13.016,0.00192714214790612,0,
00:00:13.02,0.00198073964565992,0,
00:00:13.024,0.000906693749129772,0,
00:00:13.028,0.0019432898843661,0,
00:00:13.032,-0.00469638779759407,0,
00:00:13.036,0.00177988701034337,0,
00:00:13.04,-0.000833694124594331,0,
00:00:13.044,-0.00268910150043666,0,
00:00:13.048,0.00634134281426668,0,
00:00:13.052,-0.00577794900164008,0,
00:00:13.056,-0.000599835941102356,0,
00:00:13.06,0.00642574671655893,0,
00:00:13.064,0.00268396595492959,0,
00:00:13.068,-0.00189395761117339,0,
00:00:13.072,-0.00579189555719495,0,
00:00:13.076,-0.0050461501814425,0,
00:00:13.08,0.00264714658260345,0,
00:00:13.084,0.00628235656768084,0,
00:00:13.088,-0.0014196983538568,0,
00:00:13.092,0.00278731668367982,0,
00:00:13.096,-0.00371494493447244,0,
00:00:13.1,0.00192483083810657,0,
00:00:13.104,-0.00137765810359269,0,
00:00:13.108,-0.00548931211233139,0,
00:00:13.112,0.00574300345033407,0,
00:00:13.116,0.00393643835559487,0,
00:00:13.12,-0.00247608777135611,0,
00:00:13.124,-0.0029541295953095,0,
00:00:13.128,0.000832983001600951,0,
00:00:13.132,-0.00361171131953597,0,
00:00:13.136,0.00153691601008177,0,
00:00:13.14,0.00461363093927503,0,
00:00:13.144,-0.00254310690797865,0,
00:00:13.148,-0.00164956995286047,0,
00:00:13.152,0.00263661472126842,0,
00:00:13.156,0.00584162818267941,0,
