Elapsed Time,Ch1,BioRadio Event,
00:00:00,1.33680236339569,0,
00:00:00.004,-1.27418339252472,0,
00:00:00.008,-1.05134880542755,0,
00:00:00.012,-0.118397139012814,0,
00:00:00.016,0.549892783164978,0,
00:00:00.02,0.656415343284607,0,
00:00:00.024,0.394223183393478,0,
00:00:00.028,0.054776057600975,0,
00:00:00.032,-0.18928250670433,0,
00:00:00.036,-0.256213426589966,0,
00:00:00.04,-0.191488474607468,0,
00:00:00.044,-0.0756689384579659,0,
00:00:00.048,0.0283613875508308,0,
00:00:00.052,0.0751440823078156,0,
00:00:00.056,0.0656223222613335,0,
00:00:00.06,0.0344036966562271,0,
00:00:00.064,0.0171258822083473,0,
00:00:00.068,-0.0158940777182579,0,
00:00:00.072,-0.029215682297945,0,
00:00:00.076,-0.0362325608730316,0,
00:00:00.08,0.00226315786130726,0,
00:00:00.084,0.0132378395646811,0,
00:00:00.088,0.00674852821975946,0,
00:00:00.092,0.00221164152026176,0,
00:00:00.096,8.49946300149895E-05,0,
00:00:00.1,0.00794100388884544,0,
00:00:00.104,0.00034535673330538,0,
00:00:00.108,-0.00376402796246111,0,
00:00:00.112,-0.00629568239673972,0,
00:00:00.116,-0.00673896772786975,0,
00:00:00.12,0.0176342073827982,0,
00:00:00.124,-0.00156394601799548,0,
00:00:00.128,-0.015216470696032,0,
00:00:00.132,-0.00114910735283047,0,
00:00:00.136,0.0138227548450232,0,
00:00:00.14,4.88176119688433E-05,0,
00:00:00.144,-0.00764770805835724,0,
00:00:00.148,-0.00271286605857313,0,
00:00:00.152,0.0108979847282171,0,
00:00:00.156,0.000571795681025833,0,
00:00:00.16,-0.00340985017828643,0,
00:00:00.164,-0.00538093317300081,0,
00:00:00.168,0.00257339817471802,0,
00:00:00.172,-1.61157640832243E-05,0,
00:00:00.176,-0.000230785692110658,0,
00:00:00.18,-0.00394830387085676,0,
00:00:00.184,0.0044405753724277,0,
00:00:00.188,0.00581062911078334,0,
00:00:00.192,-0.00141082610934973,0,
00:00:00.196,-0.00752168381586671,0,
00:00:00.2,0.00153169059194624,0,
00:00:00.204,0.00681868335232139,0,
00:00:00.208,-0.00700785778462887,0,
00:00:00.212,0.000184862394235097,0,
00:00:00.216,0.00181292043998837,0,
00:00:00.22,0.00114354281686246,0,
00:00:00.224,0.00214663986116648,0,
00:00:00.228,-0.00669373571872711,0,
00:00:00.232,0.00374876102432609,0,
00:00:00.236,0.000778605462983251,0,
00:00:00.24,-0.00252652121707797,0,
00:00:00.244,-0.000718941621016711,0,
00:00:00.248,0.00122042722068727,0,
00:00:00.252,0.00589623488485813,0,
00:00:00.256,-0.00700602168217301,0,
00:00:00.26,0.0111271403729916,0,
00:00:00.264,-0.00759382639080286,0,
00:00:00.268,-0.0111704776063561,0,
00:00:00.272,0.0131882084533572,0,
00:00:00.276,-0.00341003551147878,0,
00:00:00.28,-0.00580274406820536,0,
00:00:00.284,0.00410838192328811,0,
00:00:00.288,0.00431931996718049,0,
00:00:00.292,0.0013412106782198,0,
00:00:00.296,-0.00122926069889218,0,
00:00:00.3,-0.00422539981082082,0,
00:00:00.304,0.00239251228049397,0,
00:00:00.308,-0.00506158266216516,0,
00:00:00.312,0.00283893174491823,0,
00:00:00.316,0.00511132599785924,0,
00:00:00.32,0.0071932184509933,0,
00:00:00.324,-0.012549408711493,0,
00:00:00.328,-0.00834389962255955,0,
00:00:00.332,0.000598017824813724,0,
00:00:00.336,0.00997784547507763,0,
00:00:00.34,0.00615794118493795,0,
00:00:00.344,-0.00627229269593954,0,
00:00:00.348,-0.0019309640629217,0,
00:00:00.352,0.00694961287081242,0,
00:00:00.356,-0.000381280202418566,0,
00:00:00.36,-0.00803829450160265,0,
00:00:00.364,-0.00384410074912012,0,
00:00:00.368,0.00156556128058583,0,
00:00:00.372,0.0144265219569206,0,
00:00:00.376,-0.00434242282062769,0,
00:00:00.38,-0.0109008280560374,0,
00:00:00.384,0.000901903782505542,0,
00:00:00.388,0.00417238613590598,0,
00:00:00.392,0.00307970959693193,0,
00:00:00.396,-0.00131084455642849,0,
00:00:00.4,0.00309170573018491,0,
00:00:00.404,-0.00184708484448493,0,
00:00:00.408,0.00154566520359367,0,
00:00:00.412,-0.00537070538848639,0,
00:00:00.416,-0.00739734154194593,0,
00:00:00.42,0.00657052639871836,0,
00:00:00.424,0.00399554334580898,0,
00:00:00.428,-0.000694689166266471,0,
00:00:00.432,-0.000591022311709821,0,
00:00:00.436,0.00440566334873438,0,
00:00:00.44,-0.00133551342878491,0,
00:00:00.444,-0.002917789388448,0,
00:00:00.448,7.93788512964966E-06,0,
00:00:00.452,-0.00453801732510328,0,
00:00:00.456,0.00103727390524,0,
00:00:00.46,0.00464589009061456,0,
00:00:00.464,-0.00424870988354087,0,
00:00:00.468,0.00490720337256789,0,
00:00:00.472,0.00476940674707294,0,
00:00:00.476,-0.00528030376881361,0,
00:00:00.48,-0.00897396821528673,0,
00:00:00.484,0.00273166759870946,0,
00:00:00.488,0.00698520103469491,0,
00:00:00.492,0.000875247002113611,0,
00:00:00.496,-0.00360176805406809,0,
00:00:00.5,-0.00180828780867159,0,
00:00:00.504,0.00269460934214294,0,
00:00:00.508,0.0059166825376451,0,
00:00:00.512,-0.0103900237008929,0,
00:00:00.516,0.00337883247993886,0,
00:00:00.52,0.00957420282065868,0,
00:00:00.524,-0.0100504793226719,0,
00:00:00.528,-0.0113755045458674,0,
00:00:00.532,0.00640717661008239,0,
00:00:00.536,0.0145721361041069,0,
00:00:00.54,-0.00613459246233106,0,
00:00:00.544,0.00239460542798042,0,
00:00:00.548,-0.0106022162362933,0,
00:00:00.552,0.00451734289526939,0,
00:00:00.556,0.00862817652523518,0,
00:00:00.56,-0.00340854586102068,0,
00:00:00.564,-0.0117153041064739,0,
00:00:00.568,-0.0011846759589389,0,
00:00:00.572,0.0091199092566967,0,
00:00:00.576,0.00799385271966457,0,
00:00:00.58,-0.0101855089887977,0,
00:00:00.584,0.0049173510633409,0,
00:00:00.588,0.000673517293762416,0,
00:00:00.592,-0.00424458412453532,0,
00:00:00.596,-0.00267051230184734,0,
00:00:00.6,-0.00192474294453859,0,
00:00:00.604,0.00586917577311397,0,
00:00:00.608,0.00573364924639463,0,
00:00:00.612,-0.00437088729813695,0,
00:00:00.616,-0.00844038743525743,0,
00:00:00.62,0.00277748960070312,0,
00:00:00.624,0.0149840340018272,0,
00:00:00.628,-0.0136633366346359,0,
00:00:00.632,-0.00870925653725863,0,
00:00:00.636,0.0186833087354898,0,
00:00:00.64,0.000131931607029401,0,
00:00:00.644,-0.0100947581231594,0,
00:00:00.648,-0.00723141198977828,0,
00:00:00.652,0.00972571037709713,0,
00:00:00.656,0.00249131349846721,0,
00:00:00.66,-0.0046836631372571,0,
00:00:00.664,0.00268268538638949,0,
00:00:00.668,0.00648699840530753,0,
00:00:00.672,-0.00187307957094163,0,
00:00:00.676,-0.0089171202853322,0,
00:00:00.68,0.000285355956293643,0,
00:00:00.684,-0.00191807828377932,0,
00:00:00.688,0.00542122963815928,0,
00:00:00.692,0.00358031643554568,0,
00:00:00.696,-0.00418919883668423,0,
00:00:00.7,-0.00445360876619816,0,
00:00:00.704,0.00898348819464445,0,
00:00:00.708,0.00417305156588554,0,
00:00:00.712,-0.0109306490048766,0,
00:00:00.716,-0.00170285895001143,0,
00:00:00.72,0.00419553695246577,0,
00:00:00.724,0.00677989097312093,0,
00:00:00.728,-0.0103386556729674,0,
00:00:00.732,-0.00524840783327818,0,
00:00:00.736,0.00681582372635603,0,
00:00:00.74,0.0063426629640162,0,
00:00:00.744,0.00807273015379906,0,
00:00:00.748,-0.0119551792740822,0,
00:00:00.752,-0.00415522838011384,0,
00:00:00.756,0.00445809122174978,0,
00:00:00.76,-0.00401116209104657,0,
00:00:00.764,0.000577776168938726,0,
00:00:00.768,0.0022276674862951,0,
00:00:00.772,0.00184924469795078,0,
00:00:00.776,0.00274114566855133,0,
00:00:00.78,-0.0065029296092689,0,
00:00:00.784,0.00146643072366714,0,
00:00:00.788,0.00235164491459727,0,
00:00:00.792,0.00289447815157473,0,
00:00:00.796,0.00152573303785175,0,
00:00:00.8,-0.0109376842156053,0,
00:00:00.804,-0.000426102691562846,0,
00:00:00.808,0.00555423274636269,0,
00:00:00.812,-0.00282427947968245,0,
00:00:00.816,0.00169817532878369,0,
00:00:00.82,0.00893065612763166,0,
00:00:00.824,-0.00230583874508739,0,
00:00:00.828,-0.00701632024720311,0,
00:00:00.832,-0.00543702905997634,0,
00:00:00.836,0.00918410066515207,0,
00:00:00.84,0.000806712545454502,0,
00:00:00.844,-0.0019866747315973,0,
00:00:00.848,-0.00388066633604467,0,
00:00:00.852,0.00135906669311225,0,
00:00:00.856,0.00204323930665851,0,
00:00:00.86,0.00513480976223946,0,
00:00:00.864,-0.0082769338041544,0,
00:00:00.868,-8.25395982246846E-05,0,
00:00:00.872,0.00429343059659004,0,
00:00:00.876,-0.00235725799575448,0,
00:00:00.88,-0.00133194460067898,0,
00:00:00.884,0.00498343678191304,0,
00:00:00.888,0.00194830854889005,0,
00:00:00.892,-0.0079950587823987,0,
00:00:00.896,0.000715466041583568,0,
00:00:00.9,0.0066800550557673,0,
00:00:00.904,-0.00452545238658786,0,
00:00:00.908,0.00079725933028385,0,
00:00:00.912,-0.00358147430233657,0,
00:00:00.916,0.00130527513101697,0,
00:00:00.92,0.00426241010427475,0,
00:00:00.924,-0.00280755013227463,0,
00:00:00.928,0.000346172571880743,0,
00:00:00.932,-0.00133569515310228,0,
00:00:00.936,0.00632305629551411,0,
00:00:00.94,-0.00262927892617881,0,
00:00:00.944,-0.00774330319836736,0,
00:00:00.948,0.00240764254704118,0,
00:00:00.952,0.00384875130839646,0,
00:00:00.956,0.00604007579386234,0,
00:00:00.96,-0.00841887388378382,0,
00:00:00.964,-0.00284174899570644,0,
00:00:00.968,0.00144924898631871,0,
00:00:00.972,0.0111988019198179,0,
00:00:00.976,-0.00367811066098511,0,
00:00:00.98,-0.00796984415501356,0,
00:00:00.984,-0.00305532431229949,0,
00:00:00.988,0.00821922719478607,0,
00:00:00.992,0.000105648170574568,0,
00:00:00.996,-0.00588388042524457,0,
00:00:01,0.00911674741655588,0,
00:00:01.004,-0.00470058247447014,0,
00:00:01.008,9.92583591141738E-05,0,
00:00:01.012,-0.00191313168033957,0,
00:00:01.016,-0.00482852617278695,0,
00:00:01.02,0.00678416993469,0,
00:00:01.024,0.00259776902385056,0,
00:00:01.028,-0.0023967195302248,0,
00:00:01.032,-0.00167415291070938,0,
00:00:01.036,0.00419995188713074,0,
00:00:01.04,0.00324188661761582,0,
00:00:01.044,-0.0083164107054472,0,
00:00:01.048,-0.00704481033608317,0,
00:00:01.052,0.00494580110535026,0,
00:00:01.056,0.00994465965777636,0,
00:00:01.06,-0.00145866547245532,0,
00:00:01.064,-0.00612749764695764,0,
00:00:01.068,-0.00273515284061432,0,
00:00:01.072,0.00530780619010329,0,
00:00:01.076,0.00300460844300687,0,
00:00:01.08,-0.0091059971600771,0,
00:00:01.084,0.00316026201471686,0,
00:00:01.088,0.0103662926703691,0,
00:00:01.092,-0.0045614899136126,0,
00:00:01.096,-0.0102339638397098,0,
00:00:01.1,0.00136028346605599,0,
00:00:01.104,0.00632213382050395,0,
00:00:01.108,0.000962293706834316,0,
00:00:01.112,-0.00103356235194951,0,
00:00:01.116,-0.00327347544953227,0,
00:00:01.12,0.00134600384626538,0,
00:00:01.124,0.0016234319191426,0,
00:00:01.128,0.00257274112664163,0,
00:00:01.132,-0.00453892257064581,0,
00:00:01.136,0.00158751057460904,0,
00:00:01.14,-0.00111964694224298,0,
00:00:01.144,-0.0028802091255784,0,
00:00:01.148,0.00215372419916093,0,
00:00:01.152,0.00447974540293217,0,
00:00:01.156,0.0010276542743668,0,
00:00:01.16,-0.00615704106166959,0,
00:00:01.164,-0.00298012373968959,0,
00:00:01.168,0.0012981022009626,0,
00:00:01.172,0.00942227803170681,0,
00:00:01.176,-0.00121752347331494,0,
00:00:01.18,-0.00806077476590872,0,
00:00:01.184,0.00123531930148602,0,
00:00:01.188,0.00480437045916915,0,
00:00:01.192,0.00141930708196014,0,
00:00:01.196,-0.0101406490430236,0,
00:00:01.2,0.0051197106949985,0,
00:00:01.204,0.00680839223787189,0,
00:00:01.208,-0.00568025838583708,0,
00:00:01.212,-0.00430335896089673,0,
00:00:01.216,0.00214827177114785,0,
00:00:01.22,0.00698537938296795,0,
00:00:01.224,-0.00472166063264012,0,
00:00:01.228,-0.00368359475396574,0,
00:00:01.232,0.00218202453106642,0,
00:00:01.236,0.00248822453431785,0,
00:00:01.24,0.00504494505003095,0,
00:00:01.244,-0.00658683478832245,0,
00:00:01.248,-0.00659413170069456,0,
00:00:01.252,0.00639542751014233,0,
00:00:01.256,0.00697253551334143,0,
00:00:01.26,-0.00386443454772234,0,
00:00:01.264,-0.00658232672140002,0,
00:00:01.268,0.000323471933370456,0,
00:00:01.272,0.00261665694415569,0,
00:00:01.276,0.0021985569037497,0,
00:00:01.28,-0.00334750604815781,0,
00:00:01.284,0.00562895694747567,0,
00:00:01.288,0.00246515241451561,0,
00:00:01.292,-0.00407489715144038,0,
00:00:01.296,-0.00804215855896473,0,
00:00:01.3,0.00259807822294533,0,
00:00:01.304,0.0103935087099671,0,
00:00:01.308,-0.00585725344717503,0,
00:00:01.312,-0.00521516846492887,0,
00:00:01.316,-0.000407857878599316,0,
00:00:01.32,0.00696975458413363,0,
00:00:01.324,0.00341560831293464,0,
00:00:01.328,-0.00754844723269343,0,
00:00:01.332,-0.0037912183906883,0,
00:00:01.336,0.0120429964736104,0,
00:00:01.34,-0.00376547081395984,0,
00:00:01.344,-0.00280528771691024,0,
00:00:01.348,0.000732106331270188,0,
00:00:01.352,-0.00201726355589926,0,
00:00:01.356,-0.000952325470279902,0,
00:00:01.36,0.000631080183666199,0,
00:00:01.364,-0.00485545117408037,0,
00:00:01.368,0.00917010009288788,0,
00:00:01.372,0.00966385565698147,0,
00:00:01.376,-0.0092792883515358,0,
00:00:01.38,-0.00823417585343122,0,
00:00:01.384,-0.00172564282547683,0,
00:00:01.388,0.00724932039156556,0,
00:00:01.392,0.00242799054831266,0,
00:00:01.396,-0.000341021368512884,0,
00:00:01.4,0.000729007704649121,0,
00:00:01.404,-0.0031607944983989,0,
00:00:01.408,-0.00217644032090902,0,
00:00:01.412,-0.00217295251786709,0,
00:00:01.416,-0.000935876974835992,0,
00:00:01.42,0.0111772492527962,0,
00:00:01.424,0.000371917092707008,0,
00:00:01.428,-0.00366415735334158,0,
00:00:01.432,-0.00554920872673392,0,
00:00:01.436,0.000428135419497266,0,
00:00:01.44,0.00610570702701807,0,
00:00:01.444,-0.00251995865255594,0,
00:00:01.448,-0.00703844102099538,0,
00:00:01.452,0.0032478088978678,0,
00:00:01.456,0.00646147597581148,0,
00:00:01.46,0.00207855878397822,0,
00:00:01.464,-0.0104022426530719,0,
00:00:01.468,0.00440124236047268,0,
00:00:01.472,0.00404032086953521,0,
00:00:01.476,-0.00201546959578991,0,
00:00:01.48,-0.00675640068948269,0,
00:00:01.484,0.00283293589018285,0,
00:00:01.488,0.00575889833271503,0,
00:00:01.492,-0.00259380275383592,0,
00:00:01.496,0.00171696080360562,0,
00:00:01.5,-0.00625482760369778,0,
00:00:01.504,0.0102984579280019,0,
00:00:01.508,-0.00721526565030217,0,
00:00:01.512,-0.00565490545704961,0,
00:00:01.516,0.00228393916040659,0,
00:00:01.52,0.00394035317003727,0,
00:00:01.524,0.00454192003235221,0,
00:00:01.528,-0.00372507236897945,0,
00:00:01.532,-0.0049102040939033,0,
00:00:01.536,0.00814077910035849,0,
00:00:01.54,-0.000627232948318124,0,
00:00:01.544,-0.00509935291483998,0,
00:00:01.548,0.00395333068445325,0,
00:00:01.552,-0.00483065703883767,0,
00:00:01.556,0.00174995383713394,0,
00:00:01.56,-0.00243565673008561,0,
00:00:01.564,-0.00213360483758152,0,
00:00:01.568,0.00834817159920931,0,
00:00:01.572,0.00436334544792771,0,
00:00:01.576,-0.00363481719978154,0,
00:00:01.58,-0.00451743043959141,0,
00:00:01.584,-0.00439572520554066,0,
00:00:01.588,0.00420048274099827,0,
00:00:01.592,0.00326534919440746,0,
00:00:01.596,-0.00596797792240977,0,
00:00:01.6,0.000157068483531475,0,
00:00:01.604,0.00916373264044523,0,
00:00:01.608,0.000927409855648875,0,
00:00:01.612,-0.00784182641655207,0,
00:00:01.616,-0.00439452100545168,0,
00:00:01.62,0.00288442592136562,0,
00:00:01.624,0.00566854886710644,0,
00:00:01.628,-0.000258459476754069,0,
00:00:01.632,-0.00398255558684468,0,
00:00:01.636,0.00260099628940225,0,
00:00:01.64,-0.00281624542549253,0,
00:00:01.644,0.000889121845830232,0,
00:00:01.648,0.00334040308371186,0,
00:00:01.652,-0.00149271101690829,0,
00:00:01.656,0.000159680887009017,0,
00:00:01.66,-0.00480597140267491,0,
00:00:01.664,-0.00136755011044443,0,
00:00:01.668,0.00429600942879915,0,
00:00:01.672,0.00753724714741111,0,
00:00:01.676,-0.00328914122655988,0,
00:00:01.68,-0.0087748859077692,0,
00:00:01.684,-0.000357456592610106,0,
00:00:01.688,0.0118631822988391,0,
00:00:01.692,-0.00430744420737028,0,
00:00:01.696,-0.00488763255998492,0,
00:00:01.7,-0.00105223373975605,0,
00:00:01.704,0.00606567272916436,0,
00:00:01.708,0.00280269072391093,0,
00:00:01.712,-0.0056103547103703,0,
00:00:01.716,-0.00346647459082305,0,
00:00:01.72,0.00462656747549772,0,
00:00:01.724,0.00279959500767291,0,
00:00:01.728,-0.00476000271737576,0,
00:00:01.732,-0.00460280105471611,0,
00:00:01.736,0.00922295637428761,0,
00:00:01.74,0.00251876236870885,0,
00:00:01.744,-0.00442300504073501,0,
00:00:01.748,-0.010028132237494,0,
00:00:01.752,0.00911874696612358,0,
00:00:01.756,0.00429513910785317,0,
00:00:01.76,-0.00488172564655542,0,
00:00:01.764,-0.00322770373895764,0,
00:00:01.768,0.00246362620964646,0,
00:00:01.772,0.00660597439855337,0,
00:00:01.776,-0.00534316292032599,0,
00:00:01.78,-0.00622857129201293,0,
00:00:01.784,0.00607831310480833,0,
00:00:01.788,0.00226565706543624,0,
00:00:01.792,0.00380657776258886,0,
00:00:01.796,-0.0094814021140337,0,
00:00:01.8,-0.000550853030290455,0,
00:00:01.804,0.00240818201564252,0,
00:00:01.808,0.0042549199424684,0,
00:00:01.812,-0.0052809901535511,0,
00:00:01.816,0.00198460952378809,0,
00:00:01.82,0.00434914603829384,0,
00:00:01.824,0.000561194261536002,0,
00:00:01.828,-0.00668818550184369,0,
00:00:01.832,-0.00536469416692853,0,
00:00:01.836,0.00742293382063508,0,
00:00:01.84,0.0031724760774523,0,
00:00:01.844,0.00404064357280731,0,
00:00:01.848,-0.00765799917280674,0,
00:00:01.852,-0.00294177304022014,0,
00:00:01.856,0.00044338867883198,0,
00:00:01.86,0.00187813048250973,0,
00:00:01.864,-0.00241438415832818,0,
00:00:01.868,0.00686003360897303,0,
00:00:01.872,0.00330373621545732,0,
00:00:01.876,-0.00385222001932561,0,
00:00:01.88,-0.00621437001973391,0,
00:00:01.884,-0.00187709927558899,0,
00:00:01.888,0.00622710771858692,0,
00:00:01.892,0.00147878273855895,0,
00:00:01.896,-0.002862932626158,0,
00:00:01.9,-0.00139272143132985,0,
00:00:01.904,0.00898447353392839,0,
00:00:01.908,-0.00429953401908278,0,
00:00:01.912,-0.00946110859513283,0,
00:00:01.916,0.00197927909903228,0,
00:00:01.92,0.00655357167124748,0,
00:00:01.924,0.00294231087900698,0,
00:00:01.928,-0.0074003073386848,0,
00:00:01.932,-0.00118025531992316,0,
00:00:01.936,0.00849979463964701,0,
00:00:01.94,-0.00112348701804876,0,
00:00:01.944,-0.00337468832731247,0,
00:00:01.948,-0.00426481571048498,0,
00:00:01.952,0.00378422578796744,0,
00:00:01.956,0.000659236044157296,0,
00:00:01.96,-0.000208818455575965,0,
00:00:01.964,-0.00227095047011971,0,
00:00:01.968,0.00197763810865581,0,
00:00:01.972,0.00383183220401406,0,
00:00:01.976,0.00038155508809723,0,
00:00:01.98,-0.00858097523450851,0,
00:00:01.984,-0.00101174763403833,0,
00:00:01.988,0.00729848491027951,0,
00:00:01.992,0.00382192083634436,0,
00:00:01.996,-0.00735090533271432,0,
00:00:02,-0.00172240275423974,0,
00:00:02.004,0.00788842607289553,0,
00:00:02.008,0.000621313753072172,0,
00:00:02.012,-0.00740845967084169,0,
00:00:02.016,-0.00369341112673283,0,
00:00:02.02,0.00552661763504148,0,
00:00:02.024,0.00601733801886439,0,
00:00:02.028,-0.0101461820304394,0,
00:00:02.032,0.00200548092834651,0,
00:00:02.036,0.00809354893863201,0,
00:00:02.04,-0.00207336712628603,0,
00:00:02.044,-0.00586953386664391,0,
00:00:02.048,-0.00421157199889421,0,
00:00:02.052,0.00779853109270334,0,
00:00:02.056,0.0048812897875905,0,
00:00:02.06,-0.00481103174388409,0,
00:00:02.064,-0.00180981808807701,0,
00:00:02.068,0.00171872810460627,0,
00:00:02.072,-0.00170474429614842,0,
00:00:02.076,0.000863047025632113,0,
00:00:02.08,-0.00596392527222633,0,
00:00:02.084,0.00331581383943558,0,
00:00:02.088,0.00622145412489772,0,
00:00:02.092,-0.000218863788177259,0,
00:00:02.096,-0.00437558582052588,0,
00:00:02.1,-0.00205276161432266,0,
00:00:02.104,0.00493931164965034,0,
00:00:02.108,0.00220047496259212,0,
00:00:02.112,-0.00354391429573298,0,
00:00:02.116,-0.0071771158836782,0,
00:00:02.12,0.00327578978613019,0,
00:00:02.124,0.00856304168701172,0,
00:00:02.128,-0.00194492924492806,0,
00:00:02.132,-0.0100197345018387,0,
00:00:02.136,0.00593271618708968,0,
00:00:02.14,0.00927535444498062,0,
00:00:02.144,-0.00988983549177647,0,
00:00:02.148,-0.00439496478065848,0,
00:00:02.152,0.00530961854383349,0,
00:00:02.156,0.00170807144604623,0,
00:00:02.16,0.0019620293751359,0,
00:00:02.164,-0.00684838043525815,0,
00:00:02.168,0.00167748285457492,0,
00:00:02.172,0.00698074791580439,0,
00:00:02.176,-0.00271016336046159,0,
00:00:02.18,-0.00789107847958803,0,
00:00:02.184,0.00237173936329782,0,
00:00:02.188,0.00597326504066586,0,
00:00:02.192,0.00204995088279247,0,
00:00:02.196,-0.00598329864442348,0,
00:00:02.2,-0.00544298021122813,0,
00:00:02.204,0.00899110082536936,0,
00:00:02.208,0.0027328182477504,0,
00:00:02.212,-0.00612959126010537,0,
00:00:02.216,-0.00361001677811146,0,
00:00:02.22,0.00277318502776325,0,
00:00:02.224,0.00509777897968888,0,
00:00:02.228,-0.00291015999391675,0,
00:00:02.232,-0.00232605403289199,0,
00:00:02.236,0.00421874551102519,0,
00:00:02.24,0.00375010608695447,0,
00:00:02.244,-0.00775245297700167,0,
00:00:02.248,-0.00672508683055639,0,
00:00:02.252,0.00910876970738173,0,
00:00:02.256,0.00372708099894226,0,
00:00:02.26,-0.00507987663149834,0,
00:00:02.264,-0.00303010875359178,0,
00:00:02.268,0.00279017328284681,0,
00:00:02.272,0.00475492468103766,0,
00:00:02.276,-0.00125245400704443,0,
00:00:02.28,-0.00458936300128698,0,
00:00:02.284,-0.0016652651829645,0,
00:00:02.288,0.0075869606807828,0,
00:00:02.292,0.000651717360597104,0,
00:00:02.296,-0.00918566156178713,0,
00:00:02.3,-0.00140588276553899,0,
00:00:02.304,0.0093975318595767,0,
00:00:02.308,0.00211146404035389,0,
00:00:02.312,-0.00664623267948627,0,
00:00:02.316,-0.00373750133439898,0,
00:00:02.32,0.00499967765063047,0,
00:00:02.324,0.00126777437981218,0,
00:00:02.328,0.00171827722806484,0,
00:00:02.332,-0.00686583342030644,0,
00:00:02.336,0.0017869786825031,0,
00:00:02.34,0.00502866040915251,0,
00:00:02.344,-0.000664696271996945,0,
00:00:02.348,-0.00209363386966288,0,
00:00:02.352,-0.00144082668703049,0,
00:00:02.356,-0.000277619692496955,0,
00:00:02.36,-0.0015413761138916,0,
00:00:02.364,0.00272963964380324,0,
00:00:02.368,0.00217543309554458,0,
00:00:02.372,0.00448659807443619,0,
00:00:02.376,-0.00700806779786944,0,
00:00:02.38,-0.00466969888657331,0,
00:00:02.384,0.00241444283165038,0,
00:00:02.388,0.0053963465616107,0,
00:00:02.392,0.00180025119334459,0,
00:00:02.396,-0.00582300312817097,0,
00:00:02.4,-0.00511176558211446,0,
00:00:02.404,0.00925492309033871,0,
00:00:02.408,0.000745726691093296,0,
00:00:02.412,-6.88960353727452E-05,0,
00:00:02.416,-0.00813051126897335,0,
00:00:02.42,0.00359498336911201,0,
00:00:02.424,0.00142870238050818,0,
00:00:02.428,0.000331691553583369,0,
00:00:02.432,-0.0022199978120625,0,
00:00:02.436,0.0017134869704023,0,
00:00:02.44,0.00351849477738142,0,
00:00:02.444,-0.00395664153620601,0,
00:00:02.448,-0.00257314648479223,0,
00:00:02.452,0.00246806326322258,0,
00:00:02.456,0.00415982073172927,0,
00:00:02.46,-0.00166856695432216,0,
00:00:02.464,-0.00465787807479501,0,
00:00:02.468,0.00268912268802524,0,
00:00:02.472,0.00185497768688947,0,
00:00:02.476,-0.00250207353383303,0,
00:00:02.48,-0.0037484965287149,0,
00:00:02.484,0.000102964993857313,0,
00:00:02.488,0.00698863342404366,0,
00:00:02.492,0.00321922358125448,0,
00:00:02.496,-0.00570315541699529,0,
00:00:02.5,-0.00385368708521128,0,
00:00:02.504,0.00420869793742895,0,
00:00:02.508,0.00252933544106781,0,
00:00:02.512,-0.0089862858876586,0,
00:00:02.516,0.00356813287362456,0,
00:00:02.52,0.0107541484758258,0,
00:00:02.524,-0.00643774680793285,0,
00:00:02.528,-0.00618513580411673,0,
00:00:02.532,-0.00117114896420389,0,
00:00:02.536,0.00669101485982537,0,
00:00:02.54,0.00564373610541224,0,
00:00:02.544,-0.00709204562008381,0,
00:00:02.548,-0.00500186858698726,0,
00:00:02.552,0.00219947402365506,0,
00:00:02.556,0.00534971011802554,0,
00:00:02.56,-0.000223977112909779,0,
00:00:02.564,-0.00378064718097448,0,
00:00:02.568,0.000716017908416688,0,
00:00:02.572,0.00339856767095625,0,
00:00:02.576,-0.00143733888398856,0,
00:00:02.58,-0.00399403227493167,0,
00:00:02.584,-0.000893415650352836,0,
00:00:02.588,0.00810548663139343,0,
00:00:02.592,0.000782437389716506,0,
00:00:02.596,-0.00934737641364336,0,
00:00:02.6,-0.00374959828332067,0,
00:00:02.604,0.0111558604985476,0,
00:00:02.608,0.0036587524227798,0,
00:00:02.612,-0.00437620142474771,0,
00:00:02.616,-0.0064802854321897,0,
00:00:02.62,0.000331143062794581,0,
00:00:02.624,0.00455614738166332,0,
00:00:02.628,-0.00199861847795546,0,
00:00:02.632,-0.000994079629890621,0,
00:00:02.636,0.0051660668104887,0,
00:00:02.64,-0.000129628853756003,0,
00:00:02.644,8.39526983327232E-05,0,
00:00:02.648,-0.00579514494165778,0,
00:00:02.652,-0.00242816680110991,0,
00:00:02.656,0.00578232761472464,0,
00:00:02.66,-0.00275921355932951,0,
00:00:02.664,0.00747080566361547,0,
00:00:02.668,0.0023955290671438,0,
00:00:02.672,-0.00762141402810812,0,
00:00:02.676,-0.00758758513256907,0,
00:00:02.68,-0.0026905438862741,0,
00:00:02.684,0.00841200537979603,0,
00:00:02.688,0.0110259391367435,0,
00:00:02.692,-0.00439258432015777,0,
00:00:02.696,-0.00576274236664176,0,
00:00:02.7,-0.000346296583302319,0,
00:00:02.704,0.000863987545017153,0,
00:00:02.708,0.000552790006622672,0,
00:00:02.712,-0.00204684212803841,0,
00:00:02.716,-0.000337682984536514,0,
00:00:02.72,0.00754845142364502,0,
00:00:02.724,-0.00219641299918294,0,
00:00:02.728,-0.00594175886362791,0,
00:00:02.732,-0.00425085099413991,0,
00:00:02.736,0.00990237854421139,0,
00:00:02.74,0.000919715559575707,0,
00:00:02.744,-0.00229150103405118,0,
00:00:02.748,-0.00430738506838679,0,
00:00:02.752,-0.00103554280940443,0,
00:00:02.756,0.00389800919219851,0,
00:00:02.76,-0.00147973350249231,0,
00:00:02.764,0.00200125272385776,0,
00:00:02.768,0.0037836879491806,0,
00:00:02.772,0.00446929363533854,0,
00:00:02.776,-0.00643205083906651,0,
00:00:02.78,-0.00625520059838891,0,
00:00:02.784,-0.00211950624361634,0,
00:00:02.788,0.00363371917046607,0,
00:00:02.792,0.00107228627894074,0,
00:00:02.796,-0.00117920362390578,0,
00:00:02.8,0.00703498907387257,0,
00:00:02.804,0.000336546770995483,0,
00:00:02.808,-0.00710407830774784,0,
00:00:02.812,-0.00536051020026207,0,
00:00:02.816,0.00766804348677397,0,
00:00:02.82,0.00544680142775178,0,
00:00:02.824,2.84001339423412E-06,0,
00:00:02.828,-0.00747192371636629,0,
00:00:02.832,-0.00167972047347575,0,
00:00:02.836,0.00337859569117427,0,
00:00:02.84,1.61171137733618E-05,0,
00:00:02.844,-0.00236844760365784,0,
00:00:02.848,0.0021350949537009,0,
00:00:02.852,0.00415184581652284,0,
00:00:02.856,-0.00143461755942553,0,
00:00:02.86,-0.00237567140720785,0,
00:00:02.864,-0.00340819591656327,0,
00:00:02.868,0.00195226597134024,0,
00:00:02.872,0.00445471005514264,0,
00:00:02.876,0.00109969102777541,0,
00:00:02.88,-0.00605147518217564,0,
00:00:02.884,-0.00081383902579546,0,
00:00:02.888,0.0014491796027869,0,
00:00:02.892,0.00373924523591995,0,
00:00:02.896,-0.00107688503339887,0,
00:00:02.9,-0.00370015134103596,0,
00:00:02.904,0.0012904858449474,0,
00:00:02.908,0.00189598673023283,0,
00:00:02.912,0.00290514971129596,0,
00:00:02.916,-0.00227148062549531,0,
00:00:02.92,-0.000386869447538629,0,
00:00:02.924,-0.00288856006227434,0,
00:00:02.928,-0.00113689119461924,0,
00:00:02.932,-0.00116384553257376,0,
00:00:02.936,0.00372805283404887,0,
00:00:02.94,0.00511933770030737,0,
00:00:02.944,-0.00336812133900821,0,
00:00:02.948,-0.00287883286364377,0,
00:00:02.952,0.00382103375159204,0,
00:00:02.956,0.00151658861432225,0,
00:00:02.96,-0.00366417039185762,0,
00:00:02.964,-0.00485430331900716,0,
00:00:02.968,0.00164012890309095,0,
00:00:02.972,0.00508196000009775,0,
00:00:02.976,-7.81651833676733E-05,0,
00:00:02.98,-0.0034459144808352,0,
00:00:02.984,0.000997285475023091,0,
00:00:02.988,0.00143177504651248,0,
00:00:02.992,0.0025616860948503,0,
00:00:02.996,-0.00445872126147151,0,
00:00:03,-0.000407664658268914,0,
00:00:03.004,0.00296543980948627,0,
00:00:03.008,-0.00115234369877726,0,
00:00:03.012,-0.00340244546532631,0,
00:00:03.016,-0.000397442025132477,0,
00:00:03.02,0.00416032643988729,0,
00:00:03.024,0.00881930720061064,0,
00:00:03.028,-0.0102177429944277,0,
00:00:03.032,-0.00272900750860572,0,
00:00:03.036,0.00297531276009977,0,
00:00:03.04,0.00196475931443274,0,
00:00:03.044,-0.00432087108492851,0,
00:00:03.048,-0.00147903489414603,0,
00:00:03.052,0.00399820599704981,0,
00:00:03.056,0.00519864773377776,0,
00:00:03.06,-0.00145479547791183,0,
00:00:03.064,-0.00508011458441615,0,
00:00:03.068,0.00204182369634509,0,
00:00:03.072,-0.000738587405066937,0,
00:00:03.076,-0.000753717555198818,0,
00:00:03.08,7.18634146323893E-06,0,
00:00:03.084,-0.00151964253745973,0,
00:00:03.088,0.00468457490205765,0,
00:00:03.092,4.49094550276641E-05,0,
00:00:03.096,-0.00349862710572779,0,
00:00:03.1,-0.00130799727048725,0,
00:00:03.104,0.00525847729295492,0,
00:00:03.108,5.82103239139542E-05,0,
00:00:03.112,-0.00182535918429494,0,
00:00:03.116,-0.00371114630252123,0,
00:00:03.12,0.00341625302098691,0,
00:00:03.124,-5.7607059716247E-05,0,
00:00:03.128,-0.000770273327361792,0,
00:00:03.132,-0.00246158451773226,0,
00:00:03.136,0.00210879207588732,0,
00:00:03.14,0.00410668412223458,0,
00:00:03.144,-0.00144800450652838,0,
00:00:03.148,-0.00647979089990258,0,
00:00:03.152,0.00478396937251091,0,
00:00:03.156,0.00345385842956603,0,
00:00:03.16,-0.0045397742651403,0,
00:00:03.164,-0.00276096584275365,0,
00:00:03.168,0.00270244386047125,0,
00:00:03.172,0.00453809229657054,0,
00:00:03.176,-0.00347134610638022,0,
00:00:03.18,-0.00261191627942026,0,
00:00:03.184,8.66053305799142E-05,0,
00:00:03.188,0.00790163315832615,0,
00:00:03.192,-0.00216664164327085,0,
00:00:03.196,-0.00612487038597465,0,
00:00:03.2,-0.00238451501354575,0,
00:00:03.204,0.00573629094287753,0,
00:00:03.208,0.00333179673179984,0,
00:00:03.212,-0.00479939579963684,0,
00:00:03.216,-0.00286209653131664,0,
00:00:03.22,0.00482832780107856,0,
00:00:03.224,0.000588817871175706,0,
00:00:03.228,-0.000990924658253789,0,
00:00:03.232,-0.005186861846596,0,
00:00:03.236,0.00763148628175259,0,
00:00:03.24,-0.000576848164200783,0,
00:00:03.244,-0.00463463878259063,0,
00:00:03.248,-0.00177695020101964,0,
00:00:03.252,0.00343984737992287,0,
00:00:03.256,0.00469278078526258,0,
00:00:03.26,-0.00165441783610731,0,
00:00:03.264,-0.00495497370138764,0,
00:00:03.268,0.000267757975962013,0,
00:00:03.272,0.00361048243939877,0,
00:00:03.276,-0.000908133282791823,0,
00:00:03.28,-0.00349641218781471,0,
00:00:03.284,0.00145184120628983,0,
00:00:03.288,0.00407603615894914,0,
00:00:03.292,-0.00109235791023821,0,
00:00:03.296,-0.00399681692942977,0,
00:00:03.3,0.000974463415332139,0,
00:00:03.304,0.00173858704511076,0,
00:00:03.308,0.000858912826515734,0,
00:00:03.312,-0.000153949091327377,0,
00:00:03.316,-0.00274103996343911,0,
00:00:03.32,0.00133925804402679,0,
00:00:03.324,0.00340661988593638,0,
00:00:03.328,-0.00176451052539051,0,
00:00:03.332,-0.00432828767225146,0,
00:00:03.336,0.00102448894176632,0,
00:00:03.34,0.00408956687897444,0,
00:00:03.344,-0.00081567419692874,0,
00:00:03.348,-0.00367981614544988,0,
00:00:03.352,-0.000894704484380782,0,
00:00:03.356,0.00584377162158489,0,
00:00:03.36,0.000467480131192133,0,
00:00:03.364,-0.00379354367032647,0,
00:00:03.368,0.000210102167329751,0,
00:00:03.372,0.00286197033710778,0,
00:00:03.376,-0.00170585617888719,0,
00:00:03.38,-0.00394991459324956,0,
00:00:03.384,0.00141404964961112,0,
00:00:03.388,0.0043082726188004,0,
00:00:03.392,0.00127894489560276,0,
00:00:03.396,-0.00576437450945377,0,
00:00:03.4,-0.0026753768324852,0,
00:00:03.404,0.00556989619508386,0,
00:00:03.408,0.00335500831715763,0,
00:00:03.412,-0.00472043780609965,0,
00:00:03.416,-0.00283500296063721,0,
00:00:03.42,0.00477847456932068,0,
00:00:03.424,0.00257130200043321,0,
00:00:03.428,-0.00513051310554147,0,
00:00:03.432,-0.00490558054298162,0,
00:00:03.436,0.00701073603704572,0,
00:00:03.44,0.00451241619884968,0,
00:00:03.444,-0.00268023647367954,0,
00:00:03.448,-0.0055938558652997,0,
00:00:03.452,0.000237070897128433,0,
00:00:03.456,0.00394541677087545,0,
00:00:03.46,-0.0026061232201755,0,
00:00:03.464,-0.00130398583132774,0,
00:00:03.468,0.00310889724642038,0,
00:00:03.472,0.0041354619897902,0,
00:00:03.476,-0.00208353763446212,0,
00:00:03.48,-0.00720452796667814,0,
00:00:03.484,0.00228498014621437,0,
00:00:03.488,0.00747181521728635,0,
00:00:03.492,-0.00256908405572176,0,
00:00:03.496,-0.00590852508321404,0,
00:00:03.5,-0.0018259312491864,0,
00:00:03.504,0.00622374098747969,0,
00:00:03.508,0.00352376629598439,0,
00:00:03.512,-0.00489537511020899,0,
00:00:03.516,-0.00310442061163485,0,
00:00:03.52,0.00459474185481668,0,
00:00:03.524,0.0025320544373244,0,
00:00:03.528,-0.0050602788105607,0,
00:00:03.532,-0.00272192992269993,0,
00:00:03.536,0.00304472399875522,0,
00:00:03.54,0.00695722177624702,0,
00:00:03.544,-0.0052746762521565,0,
00:00:03.548,-0.00427135406062007,0,
00:00:03.552,0.00393230188637972,0,
00:00:03.556,0.00257545616477728,0,
00:00:03.56,-0.00461441092193127,0,
00:00:03.564,-0.00225321017205715,0,
00:00:03.568,0.00330484402365983,0,
00:00:03.572,0.00489413877949119,0,
00:00:03.576,-0.00136861798819155,0,
00:00:03.58,-0.00270753912627697,0,
00:00:03.584,-0.00378278247080743,0,
00:00:03.588,0.0038258689455688,0,
00:00:03.592,0.000411019515013322,0,
00:00:03.596,-0.00258043082430959,0,
00:00:03.6,0.00160044129006565,0,
00:00:03.604,0.0036971818190068,0,
00:00:03.608,-0.00159909692592919,0,
00:00:03.612,-0.00434139696881175,0,
00:00:03.616,-0.00118984596338123,0,
00:00:03.62,0.00589638343080878,0,
00:00:03.624,0.00278013153001666,0,
00:00:03.628,-0.00552437221631408,0,
00:00:03.632,-0.00336313783191144,0,
00:00:03.636,0.00468452228233218,0,
00:00:03.64,0.000722451775800437,0,
00:00:03.644,-0.000748900580219924,0,
00:00:03.648,-0.00290798721835017,0,
00:00:03.652,0.00367414159700274,0,
00:00:03.656,0.00182198057882488,0,
00:00:03.66,-0.00521155586466193,0,
00:00:03.664,-0.00247018225491047,0,
00:00:03.668,0.00340465805493295,0,
00:00:03.672,0.00513020111247897,0,
00:00:03.676,-0.00116004003211856,0,
00:00:03.68,-0.00468417583033443,0,
00:00:03.684,-0.00181697029620409,0,
00:00:03.688,0.00747372535988688,0,
00:00:03.692,-0.00146295980084687,0,
00:00:03.696,-0.0051118959672749,0,
00:00:03.7,0.000386058789445087,0,
00:00:03.704,0.00184965401422232,0,
00:00:03.708,0.00342223607003689,0,
00:00:03.712,-0.0037244891282171,0,
00:00:03.716,-0.00215694378130138,0,
00:00:03.72,0.00487556867301464,0,
00:00:03.724,0.00229176762513816,0,
00:00:03.728,-0.00548254372552037,0,
00:00:03.732,-0.00304937246255577,0,
00:00:03.736,0.00292672426439822,0,
00:00:03.74,0.00494405487552285,0,
00:00:03.744,-0.00107858749106526,0,
00:00:03.748,-0.00447217328473926,0,
00:00:03.752,0.000460342620499432,0,
00:00:03.756,0.0035332222469151,0,
00:00:03.76,-0.00111915590241551,0,
00:00:03.764,-0.00577504280954599,0,
00:00:03.768,0.00331449299119413,0,
00:00:03.772,0.00778173329308629,0,
00:00:03.776,-0.00491467583924532,0,
00:00:03.78,-0.00443938979879022,0,
00:00:03.784,0.00145888142287731,0,
00:00:03.788,0.00421884702518582,0,
00:00:03.792,-0.00102303037419915,0,
00:00:03.796,-0.00398815330117941,0,
00:00:03.8,0.000975337461568415,0,
00:00:03.804,0.00175985996611416,0,
00:00:03.808,0.0029743080958724,0,
00:00:03.812,-0.00416354089975357,0,
00:00:03.816,-0.00237916340120137,0,
00:00:03.82,0.00489036226645112,0,
00:00:03.824,0.000371022993931547,0,
00:00:03.828,-0.00125717278569937,0,
00:00:03.832,-0.00327038625255227,0,
00:00:03.836,0.00149007700383663,0,
00:00:03.84,0.00389153836295009,0,
00:00:03.844,-0.00131789059378207,0,
00:00:03.848,-0.00411883788183331,0,
00:00:03.852,0.00306628621183336,0,
00:00:03.856,0.00194447161629796,0,
00:00:03.86,-0.00471359957009554,0,
00:00:03.864,-0.00199193740263581,0,
00:00:03.868,0.0036430477630347,0,
00:00:03.872,0.0051111844368279,0,
00:00:03.876,-0.00132943002972752,0,
00:00:03.88,-0.00487257866188884,0,
00:00:03.884,-0.00193718424998224,0,
00:00:03.888,0.00536866392940283,0,
00:00:03.892,0.000548682233784348,0,
00:00:03.896,-0.001334996544756,0,
00:00:03.9,-0.00344096822664142,0,
00:00:03.904,0.00136001710779965,0,
00:00:03.908,0.00385501282289624,0,
00:00:03.912,-0.00127638888079673,0,
00:00:03.916,-0.00404585571959615,0,
00:00:03.92,0.00105211266782135,0,
00:00:03.924,0.00394885335117579,0,
00:00:03.928,-0.00307385856285691,0,
00:00:03.932,-0.00183454214129597,0,
00:00:03.936,0.0048547200858593,0,
00:00:03.94,0.00209500035271049,0,
00:00:03.944,-0.00568061741068959,0,
00:00:03.948,-0.00315146939828992,0,
00:00:03.952,0.00500696524977684,0,
00:00:03.956,0.00303684105165303,0,
00:00:03.96,-0.00264313584193587,0,
00:00:03.964,-0.00459897890686989,0,
00:00:03.968,0.00131594948470592,0,
00:00:03.972,0.00454636989161372,0,
00:00:03.976,-0.000512870843522251,0,
00:00:03.98,-0.00363719323650002,0,
00:00:03.984,-0.00104605359956622,0,
00:00:03.988,0.00563202006742358,0,
00:00:03.992,0.000305958034005016,0,
00:00:03.996,-0.00385843752883375,0,
00:00:04,-0.00184687040746212,0,
00:00:04.004,0.00489684054628015,0,
00:00:04.008,0.00206979922950268,0,
00:00:04.012,-0.00364036881364882,0,
00:00:04.016,-0.00511857913807034,0,
00:00:04.02,0.00134614226408303,0,
00:00:04.024,0.00491227395832539,0,
00:00:04.028,-9.42026890697889E-05,0,
00:00:04.032,-0.00336146703921258,0,
00:00:04.036,0.00110574765130877,0,
00:00:04.04,0.0056597706861794,0,
00:00:04.044,-0.0055155255831778,0,
00:00:04.048,-0.00380799965932965,0,
00:00:04.052,0.00248939520679414,0,
00:00:04.056,0.00497615337371826,0,
00:00:04.06,-0.000796607520896941,0,
00:00:04.064,-0.00419597327709198,0,
00:00:04.068,0.000589466246310622,0,
00:00:04.072,0.00350542250089347,0,
00:00:04.076,0.000840839988086373,0,
00:00:04.08,-0.00579589419066906,0,
00:00:04.084,-0.00245264684781432,0,
00:00:04.088,0.00584711646661162,0,
00:00:04.092,0.00354567263275385,0,
00:00:04.096,-0.00466203968971968,0,
00:00:04.1,-0.00287896418012679,0,
00:00:04.104,0.00469354679808021,0,
00:00:04.108,0.0024988898076117,0,
00:00:04.112,-0.00516451057046652,0,
00:00:04.116,-0.00282673444598913,0,
00:00:04.12,0.00505883526057005,0,
00:00:04.124,0.0028956369496882,0,
00:00:04.128,-0.00491756666451693,0,
00:00:04.132,-0.00277268001809716,0,
00:00:04.136,0.00290129124186933,0,
00:00:04.14,0.00682067312300205,0,
00:00:04.144,-0.00534871127456427,0,
00:00:04.148,-0.0042770579457283,0,
00:00:04.152,0.00189324025996029,0,
00:00:04.156,0.00667233159765601,0,
00:00:04.16,-0.00491627166047692,0,
00:00:04.164,-0.00370867899619043,0,
00:00:04.168,0.00227771606296301,0,
00:00:04.172,0.00469516916200519,0,
00:00:04.176,-0.000983504462055862,0,
00:00:04.18,-0.00631578406319022,0,
00:00:04.184,0.00262684118933976,0,
00:00:04.188,0.00732221314683557,0,
00:00:04.192,-0.00295462715439498,0,
00:00:04.196,-0.0062722796574235,0,
00:00:04.2,5.27527881786227E-05,0,
00:00:04.204,0.0021569007076323,0,
00:00:04.208,0.00395397050306201,0,
00:00:04.212,-0.00330916186794639,0,
00:00:04.216,-0.00200123828835785,0,
00:00:04.22,0.00272938353009522,0,
00:00:04.224,0.00409104535356164,0,
00:00:04.228,-0.00192851864267141,0,
00:00:04.232,-0.00493453396484256,0,
00:00:04.236,0.00458875391632319,0,
00:00:04.24,-0.000165966644999571,0,
00:00:04.244,-0.00824693590402603,0,
00:00:04.248,0.000107580679468811,0,
00:00:04.252,0.00429644715040922,0,
00:00:04.256,0.0125507032498717,0,
00:00:04.26,-0.00594356004148722,0,
00:00:04.264,-0.00910933874547482,0,
00:00:04.268,0.00361743266694248,0,
00:00:04.272,0.00542953796684742,0,
00:00:04.276,-0.00811289809644222,0,
00:00:04.28,-0.00183071685023606,0,
00:00:04.284,0.00873679108917713,0,
00:00:04.288,-0.000325094675645232,0,
00:00:04.292,-0.00259087327867746,0,
00:00:04.296,-0.00593441212549806,0,
00:00:04.3,0.00574143929407001,0,
00:00:04.304,-5.15428437211085E-05,0,
00:00:04.308,0.00577556528151035,0,
00:00:04.312,-0.00563423009589314,0,
00:00:04.316,-0.00429282942786813,0,
00:00:04.32,0.00403367541730404,0,
00:00:04.324,0.00477271527051926,0,
00:00:04.328,-0.0085728419944644,0,
00:00:04.332,0.000204085052246228,0,
00:00:04.336,0.00488013261929154,0,
00:00:04.34,0.00020856864284724,0,
00:00:04.344,-0.00104502565227449,0,
00:00:04.348,-0.00288478680886328,0,
00:00:04.352,0.00176344322972,0,
00:00:04.356,0.00392869394272566,0,
00:00:04.36,0.000604288943577558,0,
00:00:04.364,-0.00631411047652364,0,
00:00:04.368,-0.00290188775397837,0,
00:00:04.372,0.00564051326364279,0,
00:00:04.376,0.00357554899528623,0,
00:00:04.38,-0.000352026923792437,0,
00:00:04.384,-0.00666255969554186,0,
00:00:04.388,0.00151039031334221,0,
00:00:04.392,8.81525193108246E-05,0,
00:00:04.396,-0.00154060265049338,0,
00:00:04.4,0.00289255962707102,0,
00:00:04.404,0.00448109023272991,0,
00:00:04.408,0.000558750063646585,0,
00:00:04.412,-0.0067183249630034,0,
00:00:04.416,-0.00128669140394777,0,
00:00:04.42,0.00335783837363124,0,
00:00:04.424,-0.000233833881793544,0,
00:00:04.428,-0.000558148138225079,0,
00:00:04.432,-0.00414323667064309,0,
00:00:04.436,0.00852212123572826,0,
00:00:04.44,0.00184811849612743,0,
00:00:04.444,-0.00677546160295606,0,
00:00:04.448,-0.00176590704359114,0,
00:00:04.452,0.00295817642472684,0,
00:00:04.456,-0.000384377577574924,0,
00:00:04.46,-0.000497863395139575,0,
00:00:04.464,0.000159471965162084,0,
00:00:04.468,0.00055333215277642,0,
00:00:04.472,0.00257657654583454,0,
00:00:04.476,-0.0017782764043659,0,
00:00:04.48,-0.00797616504132748,0,
00:00:04.484,0.00963782146573067,0,
00:00:04.488,0.00779241230338812,0,
00:00:04.492,-0.0119471298530698,0,
00:00:04.496,-0.00324793090112507,0,
00:00:04.5,0.00149696809239686,0,
00:00:04.504,0.00490169180557132,0,
00:00:04.508,8.80621519172564E-05,0,
00:00:04.512,-0.00102116272319108,0,
00:00:04.516,-0.00276733795180917,0,
00:00:04.52,0.00601450679823756,0,
00:00:04.524,-0.00207568518817425,0,
00:00:04.528,-0.00698116514831781,0,
00:00:04.532,0.00497207976877689,0,
00:00:04.536,0.00194448011461645,0,
00:00:04.54,0.00209122244268656,0,
00:00:04.544,-0.00279114698059857,0,
00:00:04.548,-0.00455068377777934,0,
00:00:04.552,0.00342664308845997,0,
00:00:04.556,0.00256232405081391,0,
00:00:04.56,-0.0042555877007544,0,
00:00:04.564,-0.00185287650674582,0,
00:00:04.568,0.00352031993679702,0,
00:00:04.572,0.00695645669475198,0,
00:00:04.576,-0.00350238941609859,0,
00:00:04.58,-0.00868503376841545,0,
00:00:04.584,0.00401862431317568,0,
00:00:04.588,0.00396501971408725,0,
00:00:04.592,-0.00146227877121419,0,
00:00:04.596,-0.00393427815288305,0,
00:00:04.6,-0.000716756214387715,0,
00:00:04.604,0.0061874152161181,0,
00:00:04.608,0.00280547980219126,0,
00:00:04.612,-0.00154035305604339,0,
00:00:04.616,-0.00753823993727565,0,
00:00:04.62,0.00123074359726161,0,
00:00:04.624,0.000299750565318391,0,
00:00:04.628,0.000954975374042988,0,
00:00:04.632,-0.000791845668572932,0,
00:00:04.636,0.00707049900665879,0,
00:00:04.64,-0.00203269487246871,0,
00:00:04.644,-0.00547675043344498,0,
00:00:04.648,-0.00183824787382036,0,
00:00:04.652,0.00587581330910325,0,
00:00:04.656,0.00310096377506852,0,
00:00:04.66,-0.00311134732328355,0,
00:00:04.664,-0.00724504608660936,0,
00:00:04.668,0.00499698612838984,0,
00:00:04.672,0.00620638439431787,0,
00:00:04.676,-0.00382514065131545,0,
00:00:04.68,-0.00817501544952393,0,
00:00:04.684,0.00487644644454122,0,
00:00:04.688,0.00670485105365515,0,
00:00:04.692,-0.00529150804504752,0,
00:00:04.696,-0.00168973964173347,0,
00:00:04.7,-0.0015660998178646,0,
00:00:04.704,0.0073356400243938,0,
00:00:04.708,-0.00347242131829262,0,
00:00:04.712,-0.0029444214887917,0,
00:00:04.716,8.27016410767101E-05,0,
00:00:04.72,0.00813681539148092,0,
00:00:04.724,-0.00193772814236581,0,
00:00:04.728,-0.00812417175620794,0,
00:00:04.732,0.00158616702537984,0,
00:00:04.736,0.00109400320798159,0,
00:00:04.74,0.00359695474617183,0,
00:00:04.744,0.00558816222473979,0,
00:00:04.748,-0.00283405161462724,0,
00:00:04.752,-0.0134271131828427,0,
00:00:04.756,0.00652379589155316,0,
00:00:04.76,-0.000148410690599121,0,
00:00:04.764,0.00245719985105097,0,
00:00:04.768,0.0101034482941031,0,
00:00:04.772,-0.00348698254674673,0,
00:00:04.776,-0.0155058316886425,0,
00:00:04.78,-0.0032275568228215,0,
00:00:04.784,0.0116609847173095,0,
00:00:04.788,0.014005996286869,0,
00:00:04.792,-0.0181801337748766,0,
00:00:04.796,-0.0161230713129044,0,
00:00:04.8,0.0327143967151642,0,
00:00:04.804,-0.00446891039609909,0,
00:00:04.808,-0.00905185099691153,0,
00:00:04.812,0.00703026307746768,0,
00:00:04.816,0.00458579603582621,0,
00:00:04.82,-0.0100487777963281,0,
00:00:04.824,-0.00988252833485603,0,
00:00:04.828,0.000926735403481871,0,
00:00:04.832,0.00333027238957584,0,
00:00:04.836,0.00700872996822,0,
00:00:04.84,0.00402211304754019,0,
00:00:04.844,-0.00633755791932344,0,
00:00:04.848,0.0137166064232588,0,
00:00:04.852,-0.00367355905473232,0,
00:00:04.856,-0.013366986066103,0,
00:00:04.86,-0.0111237820237875,0,
00:00:04.864,0.00130423111841083,0,
00:00:04.868,0.0194114167243242,0,
00:00:04.872,0.00550725776702166,0,
00:00:04.876,-0.0116064622998238,0,
00:00:04.88,0.00393229955807328,0,
00:00:04.884,0.00419937027618289,0,
00:00:04.888,-0.0146743850782514,0,
00:00:04.892,-0.00205144309438765,0,
00:00:04.896,0.00898661650717258,0,
00:00:04.9,-0.00645458465442061,0,
00:00:04.904,0.0120698418468237,0,
00:00:04.908,0.0127766905352473,0,
00:00:04.912,-0.01267094258219,0,
00:00:04.916,-0.0122080119326711,0,
00:00:04.92,-0.0036409399472177,0,
00:00:04.924,0.0138086630031466,0,
00:00:04.928,-0.00195301126223058,0,
00:00:04.932,-0.00368925486691296,0,
00:00:04.936,-0.0030550304800272,0,
00:00:04.94,0.00341779901646078,0,
00:00:04.944,0.00377092743292451,0,
00:00:04.948,-0.00255085900425911,0,
00:00:04.952,0.00751234404742718,0,
00:00:04.956,-0.00232250895351171,0,
00:00:04.96,-0.00655553722754121,0,
00:00:04.964,-0.000861128617543727,0,
00:00:04.968,0.0033519493881613,0,
00:00:04.972,0.00155286525841802,0,
00:00:04.976,-0.00487901503220201,0,
00:00:04.98,0.000260798376984894,0,
00:00:04.984,0.00406661536544561,0,
00:00:04.988,-0.000323879037750885,0,
00:00:04.992,-0.00315517536364496,0,
00:00:04.996,-0.000643209321424365,0,
00:00:05,0.00370469992049038,0,
00:00:05.004,0.00634725578129292,0,
00:00:05.008,-0.00428827339783311,0,
00:00:05.012,-0.00711205927655101,0,
00:00:05.016,-0.0001159371167887,0,
00:00:05.02,0.0065944972448051,0,
00:00:05.024,-0.00165731075685471,0,
00:00:05.028,-0.00431577116250992,0,
00:00:05.032,-0.000612927484326065,0,
00:00:05.036,0.00452809408307076,0,
00:00:05.04,0.00516983028501272,0,
00:00:05.044,-0.00181275955401361,0,
00:00:05.048,-0.00545973470434546,0,
00:00:05.052,0.00183118064887822,0,
00:00:05.056,0.00132860080339015,0,
00:00:05.06,-0.00468435324728489,0,
00:00:05.064,-0.00158755318261683,0,
00:00:05.068,0.00409827847033739,0,
00:00:05.072,0.00955442991107702,0,
00:00:05.076,-0.00520847039297223,0,
00:00:05.08,-0.0103200515732169,0,
00:00:05.084,0.00161678961012512,0,
00:00:05.088,0.00660679722204804,0,
00:00:05.092,0.00316658476367593,0,
00:00:05.096,-0.00720945652574301,0,
00:00:05.1,0.000962777063250542,0,
00:00:05.104,0.00647919764742255,0,
00:00:05.108,-0.00701389880850911,0,
00:00:05.112,-0.00176428793929517,0,
00:00:05.116,0.00386804505251348,0,
00:00:05.12,0.00275580422021449,0,
00:00:05.124,0.00221557077020407,0,
00:00:05.128,-0.00558152049779892,0,
00:00:05.132,-0.00141218118369579,0,
00:00:05.136,0.00253058527596295,0,
00:00:05.14,-0.00102593970950693,0,
00:00:05.144,-0.000904954387806356,0,
00:00:05.148,-0.00194971461314708,0,
00:00:05.152,0.00276432069949806,0,
00:00:05.156,0.00868040230125189,0,
00:00:05.16,-0.00532300444319844,0,
00:00:05.164,-0.00786516163498163,0,
00:00:05.168,0.000120762015285436,0,
00:00:05.172,0.00527377799153328,0,
00:00:05.176,0.000975722214207053,0,
00:00:05.18,-0.00450854562222958,0,
00:00:05.184,0.00553283933550119,0,
00:00:05.188,0.00517574604600668,0,
00:00:05.192,-0.00532026356086135,0,
00:00:05.196,-0.00928047299385071,0,
00:00:05.2,0.00241297297179699,0,
00:00:05.204,0.00681213242933154,0,
00:00:05.208,0.000873141281772405,0,
00:00:05.212,-0.0034963246434927,0,
00:00:05.216,0.000393910275306553,0,
00:00:05.22,0.00288095907308161,0,
00:00:05.224,0.00232520396821201,0,
00:00:05.228,-0.00807768385857344,0,
00:00:05.232,-0.00409604795277119,0,
00:00:05.236,0.00585122499614954,0,
00:00:05.24,0.00252427533268929,0,
00:00:05.244,-0.00359566695988178,0,
00:00:05.248,0.00555776292458177,0,
00:00:05.252,0.00468108337372541,0,
00:00:05.256,-0.0079448539763689,0,
00:00:05.26,-0.00346741499379277,0,
00:00:05.264,0.0021577796433121,0,
00:00:05.268,0.00189766054973006,0,
00:00:05.272,-0.0038296498823911,0,
00:00:05.276,0.00118410470895469,0,
00:00:05.28,-0.00177510327193886,0,
00:00:05.284,0.00961868371814489,0,
00:00:05.288,0.00156942568719387,0,
00:00:05.292,-0.00566668622195721,0,
00:00:05.296,-0.00673836842179298,0,
00:00:05.3,0.000746928504668176,0,
00:00:05.304,0.0051485700532794,0,
00:00:05.308,0.000492887222208083,0,
00:00:05.312,-0.00284963566809893,0,
00:00:05.316,0.001336679328233,0,
00:00:05.32,0.00146681314799935,0,
00:00:05.324,0.00239972304552794,0,
00:00:05.328,-0.00259220134466887,0,
00:00:05.332,-0.00253060972318053,0,
00:00:05.336,0.00127507955767214,0,
00:00:05.34,-0.0012988718226552,0,
00:00:05.344,-0.00249617360532284,0,
00:00:05.348,0.00276155979372561,0,
00:00:05.352,0.00491843000054359,0,
00:00:05.356,-0.0009449438075535,0,
00:00:05.36,-0.00227751978673041,0,
00:00:05.364,-0.00359170371666551,0,
00:00:05.368,0.00375357130542398,0,
00:00:05.372,0.00226745381951332,0,
00:00:05.376,-0.00477902079001069,0,
00:00:05.38,-0.00432824390009046,0,
00:00:05.384,0.0115947527810931,0,
00:00:05.388,-0.00137646438088268,0,
00:00:05.392,-0.00409830082207918,0,
00:00:05.396,-0.00452076131477952,0,
00:00:05.4,0.00191142119001597,0,
00:00:05.404,0.00506463833153248,0,
00:00:05.408,-0.000295165402349085,0,
00:00:05.412,-0.00161438493523747,0,
00:00:05.416,-0.00320374802686274,0,
00:00:05.42,0.00174028519541025,0,
00:00:05.424,0.00408955756574869,0,
00:00:05.428,0.000801859307102859,0,
00:00:05.432,-0.00410602381452918,0,
00:00:05.436,-0.000689599837642163,0,
00:00:05.44,-0.00414016610011458,0,
00:00:05.444,-0.000150007690535858,0,
00:00:05.448,0.00316757801920176,0,
00:00:05.452,0.00984344817698002,0,
00:00:05.456,0.000226619129534811,0,
00:00:05.46,-0.0110155651345849,0,
00:00:05.464,-0.00116635346785188,0,
00:00:05.468,0.00640138238668442,0,
00:00:05.472,-0.00169124803505838,0,
00:00:05.476,-0.00433748308569193,0,
00:00:05.48,-0.000607678492087871,0,
00:00:05.484,0.00665349094197154,0,
00:00:05.488,0.00327395531348884,0,
00:00:05.492,-0.00337647995911539,0,
00:00:05.496,-0.0076603121124208,0,
00:00:05.5,0.00466762483119965,0,
00:00:05.504,0.00606632372364402,0,
00:00:05.508,-0.00379543541930616,0,
00:00:05.512,-0.00598344812169671,0,
00:00:05.516,-0.00113418803084642,0,
00:00:05.52,0.00700422609224916,0,
00:00:05.524,0.00187554978765547,0,
00:00:05.528,-0.00293060671538115,0,
00:00:05.532,0.000323896529152989,0,
00:00:05.536,0.000378861848730594,0,
00:00:05.54,0.00386685295961797,0,
00:00:05.544,-0.00666806614026427,0,
00:00:05.548,-0.00392072275280952,0,
00:00:05.552,0.00514987204223871,0,
00:00:05.556,0.00581621238961816,0,
00:00:05.56,-0.00598807586356997,0,
00:00:05.564,-0.0059777325950563,0,
00:00:05.568,0.00680825440213084,0,
00:00:05.572,0.00704982411116362,0,
00:00:05.576,-0.00613878527656198,0,
00:00:05.58,-0.00699003972113132,0,
00:00:05.584,0.00783485360443592,0,
00:00:05.588,0.00243367394432426,0,
00:00:05.592,-0.00580280413851142,0,
00:00:05.596,-0.00309064472094178,0,
00:00:05.6,0.00522916624322534,0,
00:00:05.604,0.00323976902291179,0,
00:00:05.608,-0.00257302401587367,0,
00:00:05.612,-0.00466326251626015,0,
00:00:05.616,0.00118465954437852,0,
00:00:05.62,0.00442396942526102,0,
00:00:05.624,-0.000581317697651684,0,
00:00:05.628,-0.00364622566848993,0,
00:00:05.632,-0.00101697386708111,0,
00:00:05.636,0.00567078497260809,0,
00:00:05.64,0.00448531098663807,0,
00:00:05.644,-0.00779960537329316,0,
00:00:05.648,-0.00513623096048832,0,
00:00:05.652,0.00453114742413163,0,
00:00:05.656,0.00374494353309274,0,
00:00:05.66,-0.00159023387823254,0,
00:00:05.664,-0.00593311758711934,0,
00:00:05.668,0.00763949099928141,0,
00:00:05.672,0.00408102758228779,0,
00:00:05.676,-0.0101436553522944,0,
00:00:05.68,-0.00492963055148721,0,
00:00:05.684,0.00869601499289274,0,
00:00:05.688,0.00803910288959742,0,
00:00:05.692,-0.00622191512957215,0,
00:00:05.696,-0.0076433178037405,0,
00:00:05.7,0.00509947957471013,0,
00:00:05.704,0.00614155177026987,0,
00:00:05.708,-0.006124516017735,0,
00:00:05.712,-0.00432987697422504,0,
00:00:05.716,0.000317301135510206,0,
00:00:05.72,0.00925121363252401,0,
00:00:05.724,0.00125389080494642,0,
00:00:05.728,-0.00950029958039522,0,
00:00:05.732,-0.00211834744550288,0,
00:00:05.736,0.0087696323171258,0,
00:00:05.74,-0.000263774069026113,0,
00:00:05.744,-0.00256811175495386,0,
00:00:05.748,-0.00386137492023408,0,
00:00:05.752,0.00376223167404532,0,
00:00:05.756,0.00246480270288885,0,
00:00:05.76,-0.0066392389126122,0,
00:00:05.764,0.00191900657955557,0,
00:00:05.768,0.00721318693831563,0,
00:00:05.772,-0.000505656411405653,0,
00:00:05.776,-0.00986938178539276,0,
00:00:05.78,0.000636567885521799,0,
00:00:05.784,0.00568106630817056,0,
00:00:05.788,0.000733252265490592,0,
00:00:05.792,-0.00301207392476499,0,
00:00:05.796,0.000992419547401369,0,
00:00:05.8,0.00117876136209816,0,
00:00:05.804,0.00228498224169016,0,
00:00:05.808,-0.00254467874765396,0,
00:00:05.812,-0.00655354792252183,0,
00:00:05.816,0.00327403983101249,0,
00:00:05.82,0.0061059114523232,0,
00:00:05.824,0.00168456602841616,0,
00:00:05.828,-0.00644618878141046,0,
00:00:05.832,-0.00365744926966727,0,
00:00:05.836,0.00489463936537504,0,
00:00:05.84,0.00111791165545583,0,
00:00:05.844,-0.00251050852239132,0,
00:00:05.848,0.00126147049013525,0,
00:00:05.852,0.00328641827218235,0,
00:00:05.856,-0.0018545655766502,0,
00:00:05.86,-0.00438259076327086,0,
00:00:05.864,-0.00108047085814178,0,
00:00:05.868,0.00397471804171801,0,
00:00:05.872,0.00694688456133008,0,
00:00:05.876,-0.00581359583884478,0,
00:00:05.88,-0.00484471907839179,0,
00:00:05.884,0.00154406705405563,0,
00:00:05.888,0.00454645324498415,0,
00:00:05.892,-0.000707632745616138,0,
00:00:05.896,-0.00382544798776507,0,
00:00:05.9,0.000972842215560377,0,
00:00:05.904,0.00373450084589422,0,
00:00:05.908,-0.00119359639938921,0,
00:00:05.912,-0.00390661880373955,0,
00:00:05.916,-0.000934251700527966,0,
00:00:05.92,0.00800731964409351,0,
00:00:05.924,-0.00345869641751051,0,
00:00:05.928,-0.00544287357479334,0,
00:00:05.932,0.00576085317879915,0,
00:00:05.936,0.00768557842820883,0,
00:00:05.94,-0.00489777559414506,0,
00:00:05.944,-0.0127361845225096,0,
00:00:05.948,-0.00143427343573421,0,
00:00:05.952,0.00944776739925146,0,
00:00:05.956,0.00644668564200401,0,
00:00:05.96,-0.00364052737131715,0,
00:00:05.964,-0.00344635476358235,0,
00:00:05.968,0.00344563229009509,0,
00:00:05.972,0.00140494469087571,0,
00:00:05.976,-0.00360963377170265,0,
00:00:05.98,-0.00475596403703094,0,
00:00:05.984,0.00170320062898099,0,
00:00:05.988,0.00508740870282054,0,
00:00:05.992,-0.00218918570317328,0,
00:00:05.996,-0.00151641306001693,0,
00:00:06,0.00468211201950908,0,
00:00:06.004,0.00377356307581067,0,
00:00:06.008,-0.00801926851272583,0,
00:00:06.012,-0.00290733040310442,0,
00:00:06.016,0.00077155651524663,0,
00:00:06.02,0.0022394098341465,0,
00:00:06.024,0.00194732565432787,0,
00:00:06.028,0.000850914977490902,0,
00:00:06.032,-0.00226872181519866,0,
00:00:06.036,0.00331745715811849,0,
00:00:06.04,0.00100442708935589,0,
00:00:06.044,-0.00593977002426982,0,
00:00:06.048,-0.00281935697421432,0,
00:00:06.052,0.00551368622109294,0,
00:00:06.056,0.00340396142564714,0,
00:00:06.06,-0.00668197590857744,0,
00:00:06.064,0.00133492972236127,0,
00:00:06.068,0.00452390173450112,0,
00:00:06.072,0.00113160128239542,0,
00:00:06.076,-0.00408970145508647,0,
00:00:06.08,-0.00502181379124522,0,
00:00:06.084,0.00168695440515876,0,
00:00:06.088,0.00727991852909327,0,
00:00:06.092,-0.00404027290642262,0,
00:00:06.096,-0.00309666944667697,0,
00:00:06.1,0.00242051598615944,0,
00:00:06.104,0.00446589849889278,0,
00:00:06.108,-0.0013526399852708,0,
00:00:06.112,-0.00246694893576205,0,
00:00:06.116,-0.00353801040910184,0,
00:00:06.12,0.00395303592085838,0,
00:00:06.124,0.00248261378146708,0,
00:00:06.128,-0.00463870353996754,0,
00:00:06.132,-0.000136538452352397,0,
00:00:06.136,0.00345843145623803,0,
00:00:06.14,-0.000772271538153291,0,
00:00:06.144,-0.00122027227189392,0,
00:00:06.148,-0.00458058668300509,0,
00:00:06.152,0.00841120537370443,0,
00:00:06.156,0.00197925302200019,0,
00:00:06.16,-0.00863335374742746,0,
00:00:06.164,0.000385019142413512,0,
00:00:06.168,0.00467583350837231,0,
00:00:06.172,0.00185311969835311,0,
00:00:06.176,-0.00337786157615483,0,
00:00:06.18,-0.00672438507899642,0,
00:00:06.184,0.00573601853102446,0,
00:00:06.188,0.00464127492159605,0,
00:00:06.192,-0.00379820261150599,0,
00:00:06.196,-0.00265177059918642,0,
00:00:06.2,0.00443979818373919,0,
00:00:06.204,0.00209230184555054,0,
00:00:06.208,-0.00339021813124418,0,
00:00:06.212,-0.00489923497661948,0,
00:00:06.216,0.00141251203604043,0,
00:00:06.22,0.00276122544892132,0,
00:00:06.224,0.00589494500309229,0,
00:00:06.228,-0.0057905288413167,0,
00:00:06.232,-0.00413778424263,0,
00:00:06.236,0.00436215847730637,0,
00:00:06.24,0.00294622359797359,0,
00:00:06.244,-0.0065499790944159,0,
00:00:06.248,-0.000354803429218009,0,
00:00:06.252,0.00684037199243903,0,
00:00:06.256,0.002924989676103,0,
00:00:06.26,-0.00394629267975688,0,
00:00:06.264,-0.00599608849734068,0,
00:00:06.268,0.0026010915171355,0,
00:00:06.272,0.00251977145671844,0,
00:00:06.276,-0.00380109553225338,0,
00:00:06.28,-0.00129913701675832,0,
00:00:06.284,0.00596871459856629,0,
00:00:06.288,0.00508574303239584,0,
00:00:06.292,-0.00524300895631313,0,
00:00:06.296,-0.00696224998682737,0,
00:00:06.3,0.000664165010675788,0,
00:00:06.304,0.00525985145941377,0,
00:00:06.308,0.000642303260974586,0,
00:00:06.312,-0.00278380513191223,0,
00:00:06.316,0.0012943031033501,0,
00:00:06.32,0.00343679962679744,0,
00:00:06.324,-0.00175820512231439,0,
00:00:06.328,-0.00440049963071942,0,
00:00:06.332,0.0029702705796808,0,
00:00:06.336,0.00198191497474909,0,
00:00:06.34,-0.00254668295383453,0,
00:00:06.344,-0.00388757605105639,0,
00:00:06.348,-3.7464782508323E-05,0,
00:00:06.352,0.00898129306733608,0,
00:00:06.356,0.00330511247739196,0,
00:00:06.36,-0.0113646173849702,0,
00:00:06.364,-0.00365225854329765,0,
00:00:06.368,0.00655019236728549,0,
00:00:06.372,0.00666514737531543,0,
00:00:06.376,-0.00807548779994249,0,
00:00:06.38,-0.000377919292077422,0,
00:00:06.384,0.00184549600817263,0,
00:00:06.388,0.00558321457356215,0,
00:00:06.392,-0.00364937260746956,0,
00:00:06.396,-0.00796156749129295,0,
00:00:06.4,0.00491734175011516,0,
00:00:06.404,0.00453930348157883,0,
00:00:06.408,-0.00343152089044452,0,
00:00:06.412,-0.000114724891318474,0,
00:00:06.416,0.000686218321789056,0,
00:00:06.42,0.00248580682091415,0,
00:00:06.424,3.85871171602048E-05,0,
00:00:06.428,-0.00602303072810173,0,
00:00:06.432,-0.0022508620750159,0,
00:00:06.436,0.00618533650413156,0,
00:00:06.44,0.00379475741647184,0,
00:00:06.444,-0.00458695087581873,0,
00:00:06.448,-0.0029458471108228,0,
00:00:06.452,0.00456860288977623,0,
00:00:06.456,0.00239209248684347,0,
00:00:06.46,-0.00313959340564907,0,
00:00:06.464,-0.00479850033298135,0,
00:00:06.468,0.00345064606517553,0,
00:00:06.472,0.00275566033087671,0,
00:00:06.476,-0.00405178545042872,0,
00:00:06.48,-0.00174007925670594,0,
00:00:06.484,0.00352412648499012,0,
00:00:06.488,0.00481473002582788,0,
00:00:06.492,-0.00160774250980467,0,
00:00:06.496,-0.00502288062125444,0,
00:00:06.5,0.00012701160449069,0,
00:00:06.504,0.00139193085487932,0,
00:00:06.508,0.00305046187713742,0,
00:00:06.512,-0.00178163207601756,0,
00:00:06.516,-0.00196806620806456,0,
00:00:06.52,0.00145352084655315,0,
00:00:06.524,-0.00142090627923608,0,
00:00:06.528,-0.00274137873202562,0,
00:00:06.532,0.000473807711387053,0,
00:00:06.536,0.00679218303412199,0,
00:00:06.54,0.00277944374829531,0,
00:00:06.544,-0.00608463492244482,0,
00:00:06.548,-0.00195189123041928,0,
00:00:06.552,0.00226135854609311,0,
00:00:06.556,-0.00105130032170564,0,
00:00:06.56,-0.000817085150629282,0,
00:00:06.564,-0.00186259939800948,0,
00:00:06.568,0.00487231975421309,0,
00:00:06.572,0.00253116083331406,0,
00:00:06.576,-0.00306295021437109,0,
00:00:06.58,-0.00687842164188623,0,
00:00:06.584,0.00534514477476478,0,
00:00:06.588,0.00635720696300268,0,
00:00:06.592,-0.00387694127857685,0,
00:00:06.596,-0.00833476986736059,0,
00:00:06.6,0.00264099426567554,0,
00:00:06.604,0.00651116529479623,0,
00:00:06.608,0.00246235332451761,0,
00:00:06.612,-0.00586013123393059,0,
00:00:06.616,-0.00348904239945114,0,
00:00:06.62,0.00679119816049933,0,
00:00:06.624,0.000897219520993531,0,
00:00:06.628,-0.00432525249198079,0,
00:00:06.632,-0.00681494735181332,0,
00:00:06.636,0.0062689152546227,0,
00:00:06.64,0.00528425071388483,0,
00:00:06.644,-0.00133294134866446,0,
00:00:06.648,-0.00458462117239833,0,
00:00:06.652,0.000524551898706704,0,
00:00:06.656,0.0057038189843297,0,
00:00:06.66,-0.005148786585778,0,
00:00:06.664,-0.00343158515170217,0,
00:00:06.668,0.004771763458848,0,
00:00:06.672,0.00301188114099205,0,
00:00:06.676,-0.00462605711072683,0,
00:00:06.68,-0.000458840280771255,0,
00:00:06.684,0.00308124767616391,0,
00:00:06.688,0.00106469879392534,0,
00:00:06.692,-0.00324392691254616,0,
00:00:06.696,-0.00405869912356138,0,
00:00:06.7,0.00016390134987887,0,
00:00:06.704,0.00928417034447193,0,
00:00:06.708,0.00351257203146815,0,
00:00:06.712,-0.0113174030557275,0,
00:00:06.716,-0.00165139371529222,0,
00:00:06.72,0.00445689680054784,0,
00:00:06.724,0.000777490844484419,0,
00:00:06.728,-0.0022663134150207,0,
00:00:06.732,0.00178199436049908,0,
00:00:06.736,0.00369418528862298,0,
00:00:06.74,-0.00174209626857191,0,
00:00:06.744,-0.00245232554152608,0,
00:00:06.748,-0.00123471929691732,0,
00:00:06.752,0.000137926515890285,0,
00:00:06.756,0.000867219234351069,0,
00:00:06.76,0.000879206578247249,0,
00:00:06.764,0.000474238360766321,0,
00:00:06.768,1.25021679195925E-05,0,
00:00:06.772,0.00180167437065393,0,
00:00:06.776,-0.00438031693920493,0,
00:00:06.78,-0.0019646838773042,0,
00:00:06.784,0.00129965273663402,0,
00:00:06.788,0.0109192682430148,0,
00:00:06.792,0.000330828974256292,0,
00:00:06.796,-0.0160818938165903,0,
00:00:06.8,-0.000269493786618114,0,
00:00:06.804,0.00920634996145964,0,
00:00:06.808,-0.00157520943321288,0,
00:00:06.812,0.00040605606045574,0,
00:00:06.816,-0.00148281385190785,0,
00:00:06.82,0.00414883764460683,0,
00:00:06.824,-0.00070005701854825,0,
00:00:06.828,-0.00406160624697804,0,
00:00:06.832,0.000562615809030831,0,
00:00:06.836,0.00338743347674608,0,
00:00:06.84,-0.00133475521579385,0,
00:00:06.844,0.000305135472444817,0,
00:00:06.848,-0.00471915071830153,0,
00:00:06.852,0.000735574867576361,0,
00:00:06.856,0.00438558496534824,0,
00:00:06.86,-0.00233133439905941,0,
00:00:06.864,0.00287462281994522,0,
00:00:06.868,-0.00101368187461048,0,
00:00:06.872,0.000606413232162595,0,
00:00:06.876,-0.00263774953782558,0,
00:00:06.88,-0.00354015431366861,0,
00:00:06.884,0.0002902795386035,0,
00:00:06.888,0.00497107906267047,0,
00:00:06.892,0.00722548365592957,0,
00:00:06.896,-0.00611640140414238,0,
00:00:06.9,-0.0033032326027751,0,
00:00:06.904,0.00119456881657243,0,
00:00:06.908,-0.00135793897788972,0,
00:00:06.912,-0.000533564656507224,0,
00:00:06.916,-0.00137382815591991,0,
00:00:06.92,0.00525188166648149,0,
00:00:06.924,0.00267065782099962,0,
00:00:06.928,-0.00520695699378848,0,
00:00:06.932,-0.000915595213882625,0,
00:00:06.936,0.00288531696423888,0,
00:00:06.94,-0.00098076683934778,0,
00:00:06.944,-0.00320231635123491,0,
00:00:06.948,0.00177646742668003,0,
00:00:06.952,0.00423799594864249,0,
00:00:06.956,-0.0011188150383532,0,
00:00:06.96,-0.00413403334096074,0,
00:00:06.964,0.000826095463708043,0,
00:00:06.968,0.00372114591300488,0,
00:00:06.972,0.000937798875384033,0,
00:00:06.976,-0.00374182849191129,0,
00:00:06.98,-0.00451339455321431,0,
00:00:06.984,0.0020417592022568,0,
00:00:06.988,0.00529222935438156,0,
00:00:06.992,-0.000110200984636322,0,
00:00:06.996,-0.00362944672815502,0,
00:00:07,0.00286775804124773,0,
00:00:07.004,-0.000678825424984097,0,
00:00:07.008,0.000881288084201515,0,
00:00:07.012,-0.00460164621472359,0,
00:00:07.016,-0.00157900154590607,0,
00:00:07.02,0.00601977063342929,0,
00:00:07.024,0.00321937049739063,0,
00:00:07.028,-0.00304633169434965,0,
00:00:07.032,-0.00517566781491041,0,
00:00:07.036,0.000886714726220816,0,
00:00:07.04,0.00438975263386965,0,
00:00:07.044,-0.0025170377921313,0,
00:00:07.048,0.00058914499823004,0,
00:00:07.052,0.000857481267303228,0,
00:00:07.056,0.00227546459063888,0,
00:00:07.06,-0.00442895060405135,0,
00:00:07.064,-0.000215129955904558,0,
00:00:07.068,0.00108088774140924,0,
00:00:07.072,0.000921065453439951,0,
00:00:07.076,0.00238660327158868,0,
00:00:07.08,-0.00423676054924726,0,
00:00:07.084,0.00203463505022228,0,
00:00:07.088,-0.000813430815469474,0,
00:00:07.092,-0.000739750335924327,0,
00:00:07.096,-0.00201881630346179,0,
00:00:07.1,0.00255008554086089,0,
00:00:07.104,0.00431855255737901,0,
00:00:07.108,-0.00148436124436557,0,
00:00:07.112,-0.00250593898817897,0,
00:00:07.116,-0.00350762601010501,0,
00:00:07.12,0.00400342512875795,0,
00:00:07.124,0.00251670693978667,0,
00:00:07.128,-0.00255698501132429,0,
00:00:07.132,-0.00420284364372492,0,
00:00:07.136,0.00169389299117029,0,
00:00:07.14,0.00472685042768717,0,
00:00:07.144,-0.000540658365935087,0,
00:00:07.148,-0.00585874496027827,0,
00:00:07.152,0.00492485705763102,0,
00:00:07.156,0.00530267832800746,0,
00:00:07.16,-0.00687303440645337,0,
00:00:07.164,-0.00468973815441132,0,
00:00:07.168,0.00447696028277278,0,
00:00:07.172,0.00342895812354982,0,
00:00:07.176,-0.00191035389434546,0,
00:00:07.18,-0.00403228448703885,0,
00:00:07.184,-0.000572044402360916,0,
00:00:07.188,0.00846012681722641,0,
00:00:07.192,-0.00112643931061029,0,
00:00:07.196,-0.00327529036439955,0,
00:00:07.2,-0.00416689924895763,0,
00:00:07.204,0.00588042056187987,0,
00:00:07.208,-0.00137644773349166,0,
00:00:07.212,-0.00402436032891274,0,
00:00:07.216,0.00151719897985458,0,
00:00:07.22,0.00244116690009832,0,
00:00:07.224,0.0054658898152411,0,
00:00:07.228,-0.00611321721225977,0,
00:00:07.232,-0.00427276128903031,0,
00:00:07.236,0.00438643060624599,0,
00:00:07.24,0.000972774811089039,0,
00:00:07.244,-0.000321304833050817,0,
00:00:07.248,-0.00260660285130143,0,
00:00:07.252,0.00373907200992107,0,
00:00:07.256,-0.00037427680217661,0,
00:00:07.26,-0.00134731724392623,0,
00:00:07.264,-0.000877441256307065,0,
00:00:07.268,-0.000101089426607359,0,
00:00:07.272,0.00247985776513815,0,
00:00:07.276,-0.00147055590059608,0,
00:00:07.28,-0.00339164095930755,0,
00:00:07.284,0.00186624040361494,0,
00:00:07.288,0.00444074207916856,0,
00:00:07.292,-0.000952492351643741,0,
00:00:07.296,-0.00407158164307475,0,
00:00:07.3,0.00287028588354588,0,
00:00:07.304,-0.000406247621867806,0,
00:00:07.308,0.00119994895067066,0,
00:00:07.312,-0.00439073424786329,0,
00:00:07.316,0.000554847356397659,0,
00:00:07.32,0.00398838147521019,0,
00:00:07.324,0.00147859449498355,0,
00:00:07.328,-0.00745624909177423,0,
00:00:07.332,0.0016572488239035,0,
00:00:07.336,0.00322877266444266,0,
00:00:07.34,0.00791163463145494,0,
00:00:07.344,-0.0102955931797624,0,
00:00:07.348,-0.00429196422919631,0,
00:00:07.352,0.00555695127695799,0,
00:00:07.356,0.00396287627518177,0,
00:00:07.36,-0.00204387167468667,0,
00:00:07.364,-0.00449649570509791,0,
00:00:07.368,0.00315008452162147,0,
00:00:07.372,0.000158477574586868,0,
00:00:07.376,-0.000423135963501409,0,
00:00:07.38,-0.00225333729758859,0,
00:00:07.384,0.0021001345012337,0,
00:00:07.388,0.00602434342727065,0,
00:00:07.392,-0.0056898258626461,0,
00:00:07.396,-0.00212859036400914,0,
00:00:07.4,-0.00189829349983484,0,
00:00:07.404,0.00516561511904001,0,
00:00:07.408,0.000706536404322833,0,
00:00:07.412,-0.00304435752332211,0,
00:00:07.416,0.00090597738744691,0,
00:00:07.42,0.00318390456959605,0,
00:00:07.424,-0.00177334644831717,0,
00:00:07.428,-0.00215948815457523,0,
00:00:07.432,-0.00293700583279133,0,
00:00:07.436,0.00445749005302787,0,
00:00:07.44,0.00478076236322522,0,
00:00:07.444,-0.00665786070749164,0,
00:00:07.448,-0.00403814297169447,0,
00:00:07.452,0.0029927755240351,0,
00:00:07.456,0.0056530898436904,0,
00:00:07.46,-0.000366742926416919,0,
00:00:07.464,-0.00413804221898317,0,
00:00:07.468,0.00245557026937604,0,
00:00:07.472,0.00124110782053322,0,
00:00:07.476,-0.00516983261331916,0,
00:00:07.48,-0.00210635713301599,0,
00:00:07.484,0.00377903366461396,0,
00:00:07.488,0.00741189904510975,0,
00:00:07.492,-0.00312390481121838,0,
00:00:07.496,-0.00643698731437325,0,
00:00:07.5,-5.44083777640481E-05,0,
00:00:07.504,0.00209648907184601,0,
00:00:07.508,0.00392100773751736,0,
00:00:07.512,-0.00332757481373847,0,
00:00:07.516,-0.00201140297576785,0,
00:00:07.52,0.00687619904056191,0,
00:00:07.524,-0.00193644384853542,0,
00:00:07.528,-0.00323625234887004,0,
00:00:07.532,-0.00364487199112773,0,
00:00:07.536,0.00437685148790479,0,
00:00:07.54,0.00302251358516514,0,
00:00:07.544,-0.00221988302655518,0,
00:00:07.548,-0.00620943680405617,0,
00:00:07.552,0.00561243807896972,0,
00:00:07.556,0.00419177114963531,0,
00:00:07.56,-0.00424092216417193,0,
00:00:07.564,-0.000819468754343688,0,
00:00:07.568,0.000369914050679654,0,
00:00:07.572,0.00254833325743675,0,
00:00:07.576,-0.00384716666303575,0,
00:00:07.58,-0.00179775757715106,0,
00:00:07.584,0.00327256671153009,0,
00:00:07.588,0.0066688503138721,0,
00:00:07.592,-0.00364586664363742,0,
00:00:07.596,-0.00657455204054713,0,
00:00:07.6,0.000110447486804333,0,
00:00:07.604,0.00445276545360684,0,
00:00:07.608,0.00010193933849223,0,
00:00:07.612,-0.00288850767537951,0,
00:00:07.616,0.00151648290921003,0,
00:00:07.62,0.00169244676362723,0,
00:00:07.624,0.0025518152397126,0,
00:00:07.628,-0.00255042081698775,0,
00:00:07.632,-0.00464806007221341,0,
00:00:07.636,0.00110160547774285,0,
00:00:07.64,0.00433411821722984,0,
00:00:07.644,-0.000603482709266245,0,
00:00:07.648,-0.00359312770888209,0,
00:00:07.652,0.00322480802424252,0,
00:00:07.656,0.00180164398625493,0,
00:00:07.66,-0.00498086726292968,0,
00:00:07.664,-0.00222154194489121,0,
00:00:07.668,0.00560812884941697,0,
00:00:07.672,0.00314167607575655,0,
00:00:07.676,-0.00290013779886067,0,
00:00:07.68,-0.00497058359906077,0,
00:00:07.684,0.00310674519278109,0,
00:00:07.688,0.000381028890842572,0,
00:00:07.692,-0.000145632642670535,0,
00:00:07.696,9.50502908381168E-06,0,
00:00:07.7,-0.00189905206207186,0,
00:00:07.704,0.00423148227855563,0,
00:00:07.708,-0.000262671674136072,0,
00:00:07.712,-0.00151556509081274,0,
00:00:07.716,-0.00113552145194262,0,
00:00:07.72,-0.000297379738185555,0,
00:00:07.724,0.00240676617249846,0,
00:00:07.728,-0.0035143094137311,0,
00:00:07.732,0.000740082992706448,0,
00:00:07.736,0.00160777673590928,0,
00:00:07.74,0.00301518663764,0,
00:00:07.744,-0.00197038962505758,0,
00:00:07.748,-0.00427737040445209,0,
00:00:07.752,0.00116634147707373,0,
00:00:07.756,0.00417681410908699,0,
00:00:07.76,-0.00290704960934818,0,
00:00:07.764,0.000282936875009909,0,
00:00:07.768,0.000745131052099168,0,
00:00:07.772,0.00233217584900558,0,
00:00:07.776,-0.00221831095404923,0,
00:00:07.78,-0.00206624227575958,0,
00:00:07.784,-0.00257171876728535,0,
00:00:07.788,0.00479800207540393,0,
00:00:07.792,0.000785476469900459,0,
00:00:07.796,0.00141084298957139,0,
00:00:07.8,-0.00691860122606158,0,
00:00:07.804,0.00397008517757058,0,
00:00:07.808,0.00319333211518824,0,
00:00:07.812,-0.00221845228224993,0,
00:00:07.816,-0.00433252053335309,0,
00:00:07.82,0.0034143477678299,0,
00:00:07.824,0.00243830168619752,0,
00:00:07.828,-0.00439170282334089,0,
00:00:07.832,-0.00194161932449788,0,
00:00:07.836,0.00556959351524711,0,
00:00:07.84,0.000848552910611033,0,
00:00:07.844,-0.00323338457383215,0,
00:00:07.848,0.000579005281906575,0,
00:00:07.852,0.000844427035190165,0,
00:00:07.856,0.00217320886440575,0,
00:00:07.86,-0.00245219212956727,0,
00:00:07.864,-0.00428961403667927,0,
00:00:07.868,0.00147035962436348,0,
00:00:07.872,0.00455600442364812,0,
00:00:07.876,-0.000560609973035753,0,
00:00:07.88,-0.00367264728993177,0,
00:00:07.884,0.00310801365412772,0,
00:00:07.888,0.00171318743377924,0,
00:00:07.892,-0.00501481536775827,0,
00:00:07.896,-0.000133296256535687,0,
00:00:07.9,0.0015912534436211,0,
00:00:07.904,0.00350719271227717,0,
00:00:07.908,-0.00141791382338852,0,
00:00:07.912,-0.00394977210089564,0,
00:00:07.916,-0.000868789793457836,0,
00:00:07.92,0.00807530805468559,0,
00:00:07.924,-0.00136844324879348,0,
00:00:07.928,-0.00538108637556434,0,
00:00:07.932,6.41556243863306E-06,0,
00:00:07.936,0.00156252307351679,0,
00:00:07.94,0.00331022846512496,0,
00:00:07.944,-0.00161091214977205,0,
00:00:07.948,-0.00402322039008141,0,
00:00:07.952,0.00126167153939605,0,
00:00:07.956,0.00414641667157412,0,
00:00:07.96,-0.000917592318728566,0,
00:00:07.964,-0.00384787982329726,0,
00:00:07.968,0.00103777507320046,0,
00:00:07.972,0.00379721983335912,0,
00:00:07.976,-0.00117461930494756,0,
00:00:07.98,-0.00185372156556696,0,
00:00:07.984,-0.0029508750885725,0,
00:00:07.988,0.00425363052636385,0,
00:00:07.992,0.00247334409505129,0,
00:00:07.996,-0.004832673817873,0,
00:00:08,-0.000358911231160164,0,
00:00:08.004,0.00331334071233869,0,
00:00:08.008,-0.000810461002402008,0,
00:00:08.012,-0.00117972493171692,0,
00:00:08.016,-0.00243565486744046,0,
00:00:08.02,0.00234051700681448,0,
00:00:08.024,0.0043123560026288,0,
00:00:08.028,-0.00345506914891303,0,
00:00:08.032,-0.000413059402490035,0,
00:00:08.036,0.00235600746236742,0,
00:00:08.04,0.000239782501012087,0,
00:00:08.044,-0.00579210044816136,0,
00:00:08.048,-0.00210519111715257,0,
00:00:08.052,0.00623291963711381,0,
00:00:08.056,0.00170234707184136,0,
00:00:08.06,-0.00264976173639297,0,
00:00:08.064,-0.00133323820773512,0,
00:00:08.068,0.00473630428314209,0,
00:00:08.072,0.00155679555609822,0,
00:00:08.076,-0.00415280228480697,0,
00:00:08.08,-0.00541664753109217,0,
00:00:08.084,0.00129911722615361,0,
00:00:08.088,0.00503153121098876,0,
00:00:08.092,7.09497180650942E-05,0,
00:00:08.096,-0.00324036017991602,0,
00:00:08.1,0.00114915100857615,0,
00:00:08.104,0.00148758292198181,0,
00:00:08.108,0.0025374973192811,0,
00:00:08.112,-0.00451929774135351,0,
00:00:08.116,-0.000463529955595732,0,
00:00:08.12,0.00293629942461848,0,
00:00:08.124,-0.00115335499867797,0,
00:00:08.128,-0.00131080136634409,0,
00:00:08.132,-0.00235384982079268,0,
00:00:08.136,0.00253085559234023,0,
00:00:08.14,0.00656995084136724,0,
00:00:08.144,-0.00325147854164243,0,
00:00:08.148,-0.00609165523201227,0,
00:00:08.152,0.000393518508644775,0,
00:00:08.156,0.00446482235565782,0,
00:00:08.16,-6.88147265464067E-05,0,
00:00:08.164,-0.00310258800163865,0,
00:00:08.168,0.00136461306829005,0,
00:00:08.172,0.00579201523214579,0,
00:00:08.176,-0.00344641762785614,0,
00:00:08.18,-0.00587209686636925,0,
00:00:08.184,0.00074717978714034,0,
00:00:08.188,0.00265901233069599,0,
00:00:08.192,0.00200560549274087,0,
00:00:08.196,0.000568806601222605,0,
00:00:08.2,-0.00262240646407008,0,
00:00:08.204,0.00310290115885437,0,
00:00:08.208,-0.00108784413896501,0,
00:00:08.212,-0.00384265067987144,0,
00:00:08.216,0.00105702376458794,0,
00:00:08.22,0.00383121659979224,0,
00:00:08.224,-0.00111392186954618,0,
00:00:08.228,-0.00385341187939048,0,
00:00:08.232,0.00116836361121386,0,
00:00:08.236,0.00188701483421028,0,
00:00:08.24,0.00299665471538901,0,
00:00:08.244,-0.00214288989081979,0,
00:00:08.248,-0.0044344961643219,0,
00:00:08.252,0.00111092336010188,0,
00:00:08.256,0.00214437744580209,0,
00:00:08.26,0.00123467901721597,0,
00:00:08.264,3.27952475345228E-05,0,
00:00:08.268,-0.000675277085974813,0,
00:00:08.272,0.00131583318579942,0,
00:00:08.276,-0.00242520123720169,0,
00:00:08.28,-0.00377237563952804,0,
00:00:08.284,0.00200942740775645,0,
00:00:08.288,0.00276582431979477,0,
00:00:08.292,0.00348382070660591,0,
00:00:08.296,-0.00626770965754986,0,
00:00:08.3,0.00132631254382432,0,
00:00:08.304,0.00624336581677198,0,
00:00:08.308,-0.003319883486256,0,
00:00:08.312,-0.00605737837031484,0,
00:00:08.316,-0.00158298050519079,0,
00:00:08.32,0.00864564348012209,0,
00:00:08.324,-0.000283406174276024,0,
00:00:08.328,-0.00449021905660629,0,
00:00:08.332,0.000373157032299787,0,
00:00:08.336,0.00144684175029397,0,
00:00:08.34,0.00295198010280728,0,
00:00:08.344,-0.00196204287931323,0,
00:00:08.348,-0.00629724469035864,0,
00:00:08.352,0.0052883243188262,0,
00:00:08.356,0.00390061317011714,0,
00:00:08.36,-0.00226725684478879,0,
00:00:08.364,-0.00270974938757718,0,
00:00:08.368,-0.00109499006066471,0,
00:00:08.372,0.00253595761023462,0,
00:00:08.376,-0.000837622443214059,0,
00:00:08.38,-0.00273485481739044,0,
00:00:08.384,0.00222064205445349,0,
00:00:08.388,0.00444488320499659,0,
00:00:08.392,-0.00116619188338518,0,
00:00:08.396,-0.00432613724842668,0,
00:00:08.4,0.000623236468527466,0,
00:00:08.404,0.00359511189162731,0,
00:00:08.408,-0.00116659665945917,0,
00:00:08.412,-0.00380220310762525,0,
00:00:08.416,0.00124265870545059,0,
00:00:08.42,0.00608632061630487,0,
00:00:08.424,-0.00302179949358106,0,
00:00:08.428,-0.00554765574634075,0,
00:00:08.432,-0.00119973614346236,0,
00:00:08.436,0.00459423195570707,0,
00:00:08.44,0.00767766358330846,0,
00:00:08.444,-0.00332180503755808,0,
00:00:08.448,-0.00681338785216212,0,
00:00:08.452,-0.000360336649464443,0,
00:00:08.456,0.00404901569709182,0,
00:00:08.46,-8.75638143043034E-05,0,
00:00:08.464,-0.000794194464106113,0,
00:00:08.468,-0.000325768924085423,0,
00:00:08.472,0.000193741958355531,0,
00:00:08.476,0.000386977568268776,0,
00:00:08.48,0.000285537156742066,0,
00:00:08.484,6.66521154926158E-05,0,
00:00:08.488,0.00196368643082678,0,
00:00:08.492,-0.00215523550286889,0,
00:00:08.496,-0.00386535166762769,0,
00:00:08.5,-0.000344815314747393,0,
00:00:08.504,0.00654368987306952,0,
00:00:08.508,0.000919634767342359,0,
00:00:08.512,-0.00162598467431962,0,
00:00:08.516,-0.00193475850392133,0,
00:00:08.52,-0.00111055304296315,0,
00:00:08.524,-0.000104774466308299,0,
00:00:08.528,0.000531059631612152,0,
00:00:08.532,-0.00140915892552584,0,
00:00:08.536,0.00450276676565409,0,
00:00:08.54,0.00186923297587782,0,
00:00:08.544,-0.00356093677692115,0,
00:00:08.548,-0.00702822813764215,0,
00:00:08.552,0.00548621034249663,0,
00:00:08.556,0.00454381527379155,0,
00:00:08.56,-0.00375137594528496,0,
00:00:08.564,-0.00253180181607604,0,
00:00:08.568,0.00455593597143888,0,
00:00:08.572,0.00215871375985444,0,
00:00:08.576,-0.00338037917390466,0,
00:00:08.58,-0.00492632389068604,0,
00:00:08.584,0.00137557194102556,0,
00:00:08.588,0.00273440312594175,0,
00:00:08.592,0.00380976661108434,0,
00:00:08.596,-0.00381039339117706,0,
00:00:08.6,-0.000408914580475539,0,
00:00:08.604,0.00464959582313895,0,
00:00:08.608,-0.00358463521115482,0,
00:00:08.612,-0.00534560484811664,0,
00:00:08.616,-0.00065590365557,0,
00:00:08.62,0.0071606645360589,0,
00:00:08.624,0.00178641628008336,0,
00:00:08.628,-0.00103529647458345,0,
00:00:08.632,-0.00387329142540693,0,
00:00:08.636,0.00480650551617146,0,
00:00:08.64,-0.00274791847914457,0,
00:00:08.644,-0.00492098648101091,0,
00:00:08.648,0.00132757308892906,0,
00:00:08.652,0.00484823202714324,0,
00:00:08.656,0.00192167970817536,0,
00:00:08.66,-0.00538208009675145,0,
00:00:08.664,-0.000566413335036486,0,
00:00:08.668,0.0013144607655704,0,
00:00:08.672,0.00342310382984579,0,
00:00:08.676,-0.00137089460622519,0,
00:00:08.68,-0.00178234511986375,0,
00:00:08.684,-0.00277232844382524,0,
00:00:08.688,0.004383594263345,0,
00:00:08.692,0.000416630588006228,0,
00:00:08.696,-0.00292735849507153,0,
00:00:08.7,0.00118279131129384,0,
00:00:08.704,0.00133580481633544,0,
00:00:08.708,0.00236402289010584,0,
00:00:08.712,-0.00253421347588301,0,
00:00:08.716,-0.0045040980912745,0,
00:00:08.72,0.00334245315752923,0,
00:00:08.724,0.000393401453038678,0,
00:00:08.728,-0.000237600645050406,0,
00:00:08.732,-0.00215444923378527,0,
00:00:08.736,0.00211946293711662,0,
00:00:08.74,0.00392025988548994,0,
00:00:08.744,-0.00167935597710311,0,
00:00:08.748,-0.000415090966271237,0,
00:00:08.752,-0.00534788053482771,0,
00:00:08.756,0.00251017836853862,0,
00:00:08.76,0.000357382610673085,0,
00:00:08.764,-0.00386932701803744,0,
00:00:08.768,0.00653882464393973,0,
00:00:08.772,0.00593919632956386,0,
00:00:08.776,-0.00502765132114291,0,
00:00:08.78,-0.00938424933701754,0,
00:00:08.784,0.00212635495699942,0,
00:00:08.788,0.00446879863739014,0,
00:00:08.792,0.00686012674123049,0,
00:00:08.796,-0.00373353017494082,0,
00:00:08.8,-0.0066871615126729,0,
00:00:08.804,-0.00204240251332521,0,
00:00:08.808,0.00638384185731411,0,
00:00:08.812,-0.00450861128047109,0,
00:00:08.816,-0.00302855367772281,0,
00:00:08.82,-0.000938979734200984,0,
00:00:08.824,0.00551353907212615,0,
00:00:08.828,0.00917156133800745,0,
00:00:08.832,0.0435845926403999,0,
00:00:08.836,0.0145506709814072,0,
00:00:08.84,-0.104215413331985,0,
00:00:08.844,-0.0745290219783783,0,
00:00:08.848,0.0345444604754448,0,
00:00:08.852,0.143250867724419,0,
00:00:08.856,0.0959609970450401,0,
00:00:08.86,-0.0781713128089905,0,
00:00:08.864,-0.140070408582687,0,
00:00:08.868,-0.0680423602461815,0,
00:00:08.872,0.0406499169766903,0,
00:00:08.876,0.0636163353919983,0,
00:00:08.88,0.0538609325885773,0,
00:00:08.884,0.0276994574815035,0,
00:00:08.888,-0.0146439475938678,0,
00:00:08.892,-0.0244135707616806,0,
00:00:08.896,-0.022987361997366,0,
00:00:08.9,-0.00684923026710749,0,
00:00:08.904,-0.00547220231965184,0,
00:00:08.908,-0.00713851489126682,0,
00:00:08.912,0.0221849270164967,0,
00:00:08.916,0.00331684993579984,0,
00:00:08.92,0.000509280944243073,0,
00:00:08.924,-0.00544935883954167,0,
00:00:08.928,-0.00619917688891292,0,
00:00:08.932,0.0180577058345079,0,
00:00:08.936,0.00878775212913752,0,
00:00:08.94,-0.0173147674649954,0,
00:00:08.944,-0.0159494560211897,0,
00:00:08.948,-0.00250999792478979,0,
00:00:08.952,0.00952906999737024,0,
00:00:08.956,0.0056395847350359,0,
00:00:08.96,-0.00378631451167166,0,
00:00:08.964,0.0249319300055504,0,
00:00:08.968,0.0093073658645153,0,
00:00:08.972,-0.0284835230559111,0,
00:00:08.976,-0.0284962151199579,0,
00:00:08.98,-0.00606311904266477,0,
00:00:08.984,0.0684465169906616,0,
00:00:08.988,-0.0124779846519232,0,
00:00:08.992,-0.0322200432419777,0,
00:00:08.996,-0.0114974919706583,0,
00:00:09,0.00248419004492462,0,
00:00:09.004,0.0338340774178505,0,
00:00:09.008,0.0205370541661978,0,
00:00:09.012,-0.0250925179570913,0,
00:00:09.016,-0.0360930860042572,0,
00:00:09.02,-0.00572523800656199,0,
00:00:09.024,0.0386377982795238,0,
00:00:09.028,0.017010722309351,0,
00:00:09.032,-0.0194385219365358,0,
00:00:09.036,-0.0048739523626864,0,
00:00:09.04,-0.00747577007859945,0,
00:00:09.044,-0.000952436472289264,0,
00:00:09.048,0.00641234358772635,0,
00:00:09.052,0.00345432059839368,0,
00:00:09.056,0.00173218024428934,0,
00:00:09.06,0.0044045434333384,0,
00:00:09.064,-0.00268854340538383,0,
00:00:09.068,-0.00441584456712008,0,
00:00:09.072,-0.00710281683132052,0,
00:00:09.076,0.00750628719106317,0,
00:00:09.08,0.00252302456647158,0,
00:00:09.084,-0.00740552926436067,0,
00:00:09.088,0.00152266363147646,0,
00:00:09.092,0.0052894176915288,0,
00:00:09.096,-0.000171999927260913,0,
00:00:09.1,-0.00792773999273777,0,
00:00:09.104,0.00877359136939049,0,
00:00:09.108,-0.00977371539920568,0,
00:00:09.112,-0.00292001734487712,0,
00:00:09.116,0.0344589427113533,0,
00:00:09.12,-0.0179460681974888,0,
00:00:09.124,-0.0223447158932686,0,
00:00:09.128,0.0229316968470812,0,
00:00:09.132,0.00312309176661074,0,
00:00:09.136,0.00923942402005196,0,
00:00:09.14,-0.0344417691230774,0,
00:00:09.144,-0.030021583661437,0,
00:00:09.148,0.0149836847558618,0,
00:00:09.152,0.0474416576325893,0,
00:00:09.156,0.0257183872163296,0,
00:00:09.16,-0.0293977539986372,0,
00:00:09.164,-0.0329989641904831,0,
00:00:09.168,0.00872851628810167,0,
00:00:09.172,0.0107522765174508,0,
00:00:09.176,-0.00562084233388305,0,
00:00:09.18,-0.00976332742720842,0,
00:00:09.184,0.024602010846138,0,
00:00:09.188,0.0521838590502739,0,
00:00:09.192,-0.0574096627533436,0,
00:00:09.196,-0.0852333530783653,0,
00:00:09.2,0.0413881465792656,0,
00:00:09.204,0.115241549909115,0,
00:00:09.208,-0.0113902408629656,0,
00:00:09.212,-0.0902614146471024,0,
00:00:09.216,-0.0356016866862774,0,
00:00:09.22,0.0235614441335201,0,
00:00:09.224,0.0384822115302086,0,
00:00:09.228,0.0215369202196598,0,
00:00:09.232,0.00259094755165279,0,
00:00:09.236,-0.0135790146887302,0,
00:00:09.24,-4.53715656476561E-05,0,
00:00:09.244,-0.0132560795173049,0,
00:00:09.248,-0.0110509265214205,0,
00:00:09.252,0.00560656934976578,0,
00:00:09.256,0.0131686758249998,0,
00:00:09.26,-0.0130861485376954,0,
00:00:09.264,0.00252545811235905,0,
00:00:09.268,0.0160068608820438,0,
00:00:09.272,-0.0128970872610807,0,
00:00:09.276,-0.0106847239658237,0,
00:00:09.28,0.00575587013736367,0,
00:00:09.284,0.025497617200017,0,
00:00:09.288,-0.0127766858786345,0,
00:00:09.292,0.00543004740029573,0,
00:00:09.296,-0.0167293008416891,0,
00:00:09.3,-0.0119565753266215,0,
00:00:09.304,0.00809956714510918,0,
00:00:09.308,0.0123531762510538,0,
00:00:09.312,-0.0029931990429759,0,
00:00:09.316,0.00186229718383402,0,
00:00:09.32,-0.000755404529627413,0,
00:00:09.324,0.00143290660344064,0,
00:00:09.328,0.00202617491595447,0,
00:00:09.332,-0.00762810837477446,0,
00:00:09.336,0.0067728366702795,0,
00:00:09.34,-0.00596879934892058,0,
00:00:09.344,0.000200780850718729,0,
00:00:09.348,-0.000973678368609399,0,
00:00:09.352,-0.00169901293702424,0,
00:00:09.356,0.00340769207105041,0,
00:00:09.36,-0.00105766660999507,0,
00:00:09.364,0.0111138811334968,0,
00:00:09.368,-0.00560882268473506,0,
00:00:09.372,0.00205349829047918,0,
00:00:09.376,-0.0119164139032364,0,
00:00:09.38,-0.0049827597104013,0,
00:00:09.384,0.00785879511386156,0,
00:00:09.388,0.00115034740883857,0,
00:00:09.392,0.0146135203540325,0,
00:00:09.396,0.00348403863608837,0,
00:00:09.4,-0.0157615002244711,0,
00:00:09.404,-0.00873788725584745,0,
00:00:09.408,0.00155349483247846,0,
00:00:09.412,-0.00181884283665568,0,
00:00:09.416,0.00525793945416808,0,
00:00:09.42,0.00610748399049044,0,
00:00:09.424,-0.000876938982401043,0,
00:00:09.428,-0.0252977069467306,0,
00:00:09.432,0.0161552093923092,0,
00:00:09.436,0.0719674751162529,0,
00:00:09.44,0.0253326296806335,0,
00:00:09.444,-0.0958224460482597,0,
00:00:09.448,-0.101573832333088,0,
00:00:09.452,0.0306601151823998,0,
00:00:09.456,0.0968420505523682,0,
00:00:09.46,0.0189978890120983,0,
00:00:09.464,-0.0294298157095909,0,
00:00:09.468,-0.0193866156041622,0,
00:00:09.472,0.0062255491502583,0,
00:00:09.476,0.0416116751730442,0,
00:00:09.48,0.010582996532321,0,
00:00:09.484,-0.0745228156447411,0,
00:00:09.488,-0.0469948202371597,0,
00:00:09.492,0.0437922067940235,0,
00:00:09.496,0.0957971215248108,0,
00:00:09.5,0.00973743852227926,0,
00:00:09.504,-0.0765987560153008,0,
00:00:09.508,-0.05998270586133,0,
00:00:09.512,-0.00131591584067792,0,
00:00:09.516,0.0258058123290539,0,
00:00:09.52,0.0620292238891125,0,
00:00:09.524,0.0490364767611027,0,
00:00:09.528,-0.0266461633145809,0,
00:00:09.532,-0.0706996098160744,0,
00:00:09.536,-0.0219527836889029,0,
00:00:09.54,0.0143480049446225,0,
00:00:09.544,0.0263164024800062,0,
00:00:09.548,0.0154619170352817,0,
00:00:09.552,0.00354748987592757,0,
00:00:09.556,-0.000433445209637284,0,
00:00:09.56,-0.0133193833753467,0,
00:00:09.564,-0.00291180307976902,0,
00:00:09.568,-0.00299715413711965,0,
00:00:09.572,0.00131369929295033,0,
00:00:09.576,0.00145934533793479,0,
00:00:09.58,-0.00139190210029483,0,
00:00:09.584,-0.00411640852689743,0,
00:00:09.588,0.00963087566196918,0,
00:00:09.592,0.00319455447606742,0,
00:00:09.596,-0.0142318578436971,0,
00:00:09.6,0.00210240250453353,0,
00:00:09.604,0.0317499339580536,0,
00:00:09.608,-0.0188927482813597,0,
00:00:09.612,-0.0230808015912771,0,
00:00:09.616,0.00793180894106627,0,
00:00:09.62,0.0107331536710262,0,
00:00:09.624,-0.00819448847323656,0,
00:00:09.628,0.0059042233042419,0,
00:00:09.632,0.0137824574485421,0,
00:00:09.636,-0.00914946291595697,0,
00:00:09.64,-0.00106325082015246,0,
00:00:09.644,-0.0189115144312382,0,
00:00:09.648,0.00406495900824666,0,
00:00:09.652,0.020696897059679,0,
00:00:09.656,-0.0171125177294016,0,
00:00:09.66,0.00930227898061275,0,
00:00:09.664,0.0309428814798594,0,
00:00:09.668,-0.0259105209261179,0,
00:00:09.672,-0.0216536410152912,0,
00:00:09.676,-0.0151631617918611,0,
00:00:09.68,0.0301403719931841,0,
00:00:09.684,0.0138625260442495,0,
00:00:09.688,-0.00914393924176693,0,
00:00:09.692,-0.00622779130935669,0,
00:00:09.696,0.00265876995399594,0,
00:00:09.7,-0.00451822299510241,0,
00:00:09.704,-0.00121454347390682,0,
00:00:09.708,0.0108099225908518,0,
00:00:09.712,0.00596411339938641,0,
00:00:09.716,-0.0142753859981894,0,
00:00:09.72,-0.00669884122908115,0,
00:00:09.724,0.00543453264981508,0,
00:00:09.728,0.00528756808489561,0,
00:00:09.732,-0.00461564585566521,0,
00:00:09.736,-0.0119831496849656,0,
00:00:09.74,-0.00224471231922507,0,
00:00:09.744,0.0193919409066439,0,
00:00:09.748,0.028860991820693,0,
00:00:09.752,0.043982308357954,0,
00:00:09.756,-0.0223220810294151,0,
00:00:09.76,-0.110853545367718,0,
00:00:09.764,-0.0660877376794815,0,
00:00:09.768,0.0372342504560947,0,
00:00:09.772,0.13495084643364,0,
00:00:09.776,0.0731810629367828,0,
00:00:09.78,-0.0960990414023399,0,
00:00:09.784,-0.046200305223465,0,
00:00:09.788,0.0367397665977478,0,
00:00:09.792,-0.00751085625961423,0,
00:00:09.796,-0.0463489405810833,0,
00:00:09.8,-0.0400498621165752,0,
00:00:09.804,0.0112941889092326,0,
00:00:09.808,0.119743838906288,0,
00:00:09.812,0.0747010558843613,0,
00:00:09.816,-0.0866268873214722,0,
00:00:09.82,-0.0629892200231552,0,
00:00:09.824,-0.00567713240161538,0,
00:00:09.828,-0.0292794592678547,0,
00:00:09.832,0.00601206254214048,0,
00:00:09.836,0.0389573201537132,0,
00:00:09.84,0.0527925416827202,0,
00:00:09.844,0.00966030173003674,0,
00:00:09.848,-0.0290723238140345,0,
00:00:09.852,-0.0307878386229277,0,
00:00:09.856,-0.0109895970672369,0,
00:00:09.86,-0.0022805396001786,0,
00:00:09.864,0.0119139030575752,0,
00:00:09.868,0.0365147888660431,0,
00:00:09.872,-0.00145368836820126,0,
00:00:09.876,-0.0294712334871292,0,
00:00:09.88,-0.00993174128234386,0,
00:00:09.884,0.00100471032783389,0,
00:00:09.888,0.0120125925168395,0,
00:00:09.892,0.00641119480133057,0,
00:00:09.896,-0.00067067751660943,0,
00:00:09.9,-0.00391502771526575,0,
00:00:09.904,0.00287761026993394,0,
00:00:09.908,0.00758456951007247,0,
00:00:09.912,-0.011420726776123,0,
00:00:09.916,-0.0138384215533733,0,
00:00:09.92,0.0210771039128304,0,
00:00:09.924,0.00890814792364836,0,
00:00:09.928,-0.0132897105067968,0,
00:00:09.932,-0.0107851941138506,0,
00:00:09.936,-0.00587557489052415,0,
00:00:09.94,0.00663598580285907,0,
00:00:09.944,0.00319544086232781,0,
00:00:09.948,0.0243588592857122,0,
00:00:09.952,-0.00399307021871209,0,
00:00:09.956,-0.0119769563898444,0,
00:00:09.96,-0.0109952688217163,0,
00:00:09.964,0.00358330365270376,0,
00:00:09.968,-0.00408806977793574,0,
00:00:09.972,0.00290969619527459,0,
00:00:09.976,0.00528646120801568,0,
00:00:09.98,0.00179920240771025,0,
00:00:09.984,0.0237490721046925,0,
00:00:09.988,-0.0194138158112764,0,
00:00:09.992,-0.0205228254199028,0,
00:00:09.996,-0.00246791890822351,0,
00:00:10,0.00612281309440732,0,
00:00:10.004,0.00981320254504681,0,
00:00:10.008,0.0178989879786968,0,
00:00:10.012,-0.00120326748583466,0,
00:00:10.016,-0.0181799810379744,0,
00:00:10.02,-0.00362892844714224,0,
00:00:10.024,-8.18635089672171E-05,0,
00:00:10.028,0.00698018120601773,0,
00:00:10.032,0.00154879747424275,0,
00:00:10.036,-0.00511808274313807,0,
00:00:10.04,-0.00163671537302434,0,
00:00:10.044,0.00844223890453577,0,
00:00:10.048,0.00364429922774434,0,
00:00:10.052,-0.000387389212846756,0,
00:00:10.056,-0.0172907151281834,0,
00:00:10.06,-0.0142829436808825,0,
00:00:10.064,0.0184119306504726,0,
00:00:10.068,0.0318610742688179,0,
00:00:10.072,0.0224545430392027,0,
00:00:10.076,-0.0337625183165073,0,
00:00:10.08,-0.0568738542497158,0,
00:00:10.084,-0.00773046677932143,0,
00:00:10.088,0.01387326605618,0,
00:00:10.092,-0.0160807371139526,0,
00:00:10.096,0.113163240253925,0,
00:00:10.1,0.109306633472443,0,
00:00:10.104,-0.0757322013378143,0,
00:00:10.108,-0.159923106431961,0,
00:00:10.112,-0.0925693958997726,0,
00:00:10.116,0.0458064004778862,0,
00:00:10.12,0.0910429805517197,0,
00:00:10.124,0.0756645649671555,0,
00:00:10.128,0.0228849370032549,0,
00:00:10.132,-0.0272766649723053,0,
00:00:10.136,-0.0258987993001938,0,
00:00:10.14,-0.0260073691606522,0,
00:00:10.144,-0.023701848462224,0,
00:00:10.148,-0.00486851576715708,0,
00:00:10.152,0.010514909401536,0,
00:00:10.156,0.00708172423765063,0,
00:00:10.16,0.0193610731512308,0,
00:00:10.164,0.0251055862754583,0,
00:00:10.168,-0.0195161998271942,0,
00:00:10.172,-0.0180293638259172,0,
00:00:10.176,0.00157707533799112,0,
00:00:10.18,0.015784740447998,0,
00:00:10.184,-0.00909337867051363,0,
00:00:10.188,-0.0191814992576838,0,
00:00:10.192,-0.0083245076239109,0,
00:00:10.196,0.0111585417762399,0,
00:00:10.2,0.020226551219821,0,
00:00:10.204,0.00858960952609777,0,
00:00:10.208,0.00469946721568704,0,
00:00:10.212,-0.0105191767215729,0,
00:00:10.216,-0.0157665330916643,0,
00:00:10.22,-0.00207293359562755,0,
00:00:10.224,0.0055640353821218,0,
00:00:10.228,-0.00196329294703901,0,
00:00:10.232,0.00486686173826456,0,
00:00:10.236,0.00575703009963036,0,
00:00:10.24,-0.0035914396867156,0,
00:00:10.244,0.00271289190277457,0,
00:00:10.248,-0.000570843927562237,0,
00:00:10.252,-0.0159613955765963,0,
00:00:10.256,0.0062399860471487,0,
00:00:10.26,0.0143904024735093,0,
00:00:10.264,0.00349506572820246,0,
00:00:10.268,-0.0227394420653582,0,
00:00:10.272,0.00101280014496297,0,
00:00:10.276,-0.000871624390129,0,
00:00:10.28,0.0113092055544257,0,
00:00:10.284,0.00780006730929017,0,
00:00:10.288,0.00263624591752887,0,
00:00:10.292,-0.00415398832410574,0,
00:00:10.296,-0.012902089394629,0,
00:00:10.3,-0.0011359928175807,0,
00:00:10.304,-0.00291926763020456,0,
00:00:10.308,0.0156252514570951,0,
00:00:10.312,0.00705676293000579,0,
00:00:10.316,-0.0206094514578581,0,
00:00:10.32,0.00306405033916235,0,
00:00:10.324,0.00618292996659875,0,
00:00:10.328,0.00242153857834637,0,
00:00:10.332,-0.00546762207522988,0,
00:00:10.336,-0.000846609065774828,0,
00:00:10.34,0.00526497466489673,0,
00:00:10.344,-0.00470761582255363,0,
00:00:10.348,-0.0026762131601572,0,
00:00:10.352,0.00119214737787843,0,
00:00:10.356,0.00714583741500974,0,
00:00:10.36,0.000588843948207796,0,
00:00:10.364,-0.00444238726049662,0,
00:00:10.368,-0.00267430208623409,0,
00:00:10.372,-0.0060794553719461,0,
00:00:10.376,0.0117525039240718,0,
00:00:10.38,0.0192328616976738,0,
00:00:10.384,-0.0219420101493597,0,
00:00:10.388,-0.0288569424301386,0,
00:00:10.392,-0.0114242928102612,0,
00:00:10.396,0.0536373183131218,0,
00:00:10.4,0.0655548721551895,0,
00:00:10.404,-0.0402216166257858,0,
00:00:10.408,-0.0641695708036423,0,
00:00:10.412,-0.0650297701358795,0,
00:00:10.416,0.0528171844780445,0,
00:00:10.42,0.0834114998579025,0,
00:00:10.424,0.00208883639425039,0,
00:00:10.428,-0.0288813803344965,0,
00:00:10.432,-0.0545168928802013,0,
00:00:10.436,0.0235062036663294,0,
00:00:10.44,0.0613362453877926,0,
00:00:10.444,-0.0333094745874405,0,
00:00:10.448,-0.0767485275864601,0,
00:00:10.452,-0.00529860937967896,0,
00:00:10.456,0.050694078207016,0,
00:00:10.46,0.0392534732818604,0,
00:00:10.464,0.0158330257982016,0,
00:00:10.468,-0.00365295191295445,0,
00:00:10.472,-0.0209087952971458,0,
00:00:10.476,-0.0122758075594902,0,
00:00:10.48,-0.0206402242183685,0,
00:00:10.484,-0.00856364145874977,0,
00:00:10.488,0.0156971327960491,0,
00:00:10.492,0.020938390865922,0,
00:00:10.496,-0.00453373650088906,0,
00:00:10.5,-0.00745604140684009,0,
00:00:10.504,-0.00090984080452472,0,
00:00:10.508,-0.000663181883282959,0,
00:00:10.512,0.00338349374942482,0,
00:00:10.516,0.000118971547635738,0,
00:00:10.52,0.00399183901026845,0,
00:00:10.524,0.000313552096486092,0,
00:00:10.528,-0.00291072623804212,0,
00:00:10.532,-0.00758366473019123,0,
00:00:10.536,0.00200096005573869,0,
00:00:10.54,-0.00293453480117023,0,
00:00:10.544,0.00551089690998197,0,
00:00:10.548,0.0109544126316905,0,
00:00:10.552,-0.00687675271183252,0,
00:00:10.556,-0.00673003913834691,0,
00:00:10.56,0.00257365847937763,0,
00:00:10.564,-0.00783799216151237,0,
00:00:10.568,0.0163598526269197,0,
00:00:10.572,0.00933169294148684,0,
00:00:10.576,-0.0257911309599876,0,
00:00:10.58,-0.0125933084636927,0,
00:00:10.584,0.0330802239477634,0,
00:00:10.588,-0.0051813586615026,0,
00:00:10.592,-0.00119360699318349,0,
00:00:10.596,-0.00895181857049465,0,
00:00:10.6,-0.00586660346016288,0,
00:00:10.604,0.00629435060545802,0,
00:00:10.608,0.0106239169836044,0,
00:00:10.612,-0.00154547020792961,0,
00:00:10.616,-0.00873212236911058,0,
00:00:10.62,0.000746442703530192,0,
00:00:10.624,0.0046246056444943,0,
00:00:10.628,-0.00268218223936856,0,
00:00:10.632,0.000176877161720768,0,
00:00:10.636,0.000519384047947824,0,
00:00:10.64,0.00425785593688488,0,
00:00:10.644,-0.00627369619905949,0,
00:00:10.648,-0.005779511295259,0,
00:00:10.652,0.00505498657003045,0,
00:00:10.656,0.00722664268687367,0,
00:00:10.66,-0.000278959923889488,0,
00:00:10.664,-0.00501351337879896,0,
00:00:10.668,0.00146023859269917,0,
00:00:10.672,-0.00139959540683776,0,
00:00:10.676,0.000936488737352192,0,
00:00:10.68,-0.00615589413791895,0,
00:00:10.684,-0.00316721969284117,0,
00:00:10.688,0.0140702873468399,0,
00:00:10.692,0.0131086725741625,0,
00:00:10.696,-0.0173365026712418,0,
00:00:10.7,-0.0150166759267449,0,
00:00:10.704,-0.000804894894827157,0,
00:00:10.708,0.0127936042845249,0,
00:00:10.712,0.0202978141605854,0,
00:00:10.716,-0.0159257724881172,0,
00:00:10.72,-0.0308293607085943,0,
00:00:10.724,0.0571821630001068,0,
00:00:10.728,0.0425352677702904,0,
00:00:10.732,-0.0755015313625336,0,
00:00:10.736,-0.0638013333082199,0,
00:00:10.74,0.00090633996296674,0,
00:00:10.744,0.0526126585900784,0,
00:00:10.748,0.0640478208661079,0,
00:00:10.752,0.00188895512837917,0,
00:00:10.756,-0.0481367744505405,0,
00:00:10.76,-0.0028506126254797,0,
00:00:10.764,0.00321027706377208,0,
00:00:10.768,-0.0343898683786392,0,
00:00:10.772,0.00247965264134109,0,
00:00:10.776,0.0401685982942581,0,
00:00:10.78,0.0150951705873013,0,
00:00:10.784,-0.00545572163537145,0,
00:00:10.788,-0.0369354635477066,0,
00:00:10.792,-0.0154971368610859,0,
00:00:10.796,0.0175717566162348,0,
00:00:10.8,0.0176729131489992,0,
00:00:10.804,0.0194093827158213,0,
00:00:10.808,0.00846742652356625,0,
00:00:10.812,-0.0276469588279724,0,
00:00:10.816,-0.0282308831810951,0,
00:00:10.82,0.00338852731510997,0,
00:00:10.824,0.0112798353657126,0,
00:00:10.828,0.00464355573058128,0,
00:00:10.832,0.00963603798300028,0,
00:00:10.836,0.00918667111545801,0,
00:00:10.84,-0.00508474046364427,0,
00:00:10.844,-0.00172526063397527,0,
00:00:10.848,-0.0110834548249841,0,
00:00:10.852,0.000195415210328065,0,
00:00:10.856,-0.00685185473412275,0,
00:00:10.86,0.00414496613666415,0,
00:00:10.864,0.0081920949742198,0,
00:00:10.868,-0.000391950568882748,0,
00:00:10.872,0.00278495065867901,0,
00:00:10.876,-0.0063914405182004,0,
00:00:10.88,0.00737824384123087,0,
00:00:10.884,-0.010323928669095,0,
00:00:10.888,0.00141132774297148,0,
00:00:10.892,0.0119138453155756,0,
00:00:10.896,-0.0080023305490613,0,
00:00:10.9,-0.0130373630672693,0,
00:00:10.904,0.00132049375679344,0,
00:00:10.908,0.0437961146235466,0,
00:00:10.912,-0.0298080816864967,0,
00:00:10.916,-0.0185765754431486,0,
00:00:10.92,0.00112316757440567,0,
00:00:10.924,0.0157277435064316,0,
00:00:10.928,0.00500763021409512,0,
00:00:10.932,-0.000854081532452255,0,
00:00:10.936,-0.00504170125350356,0,
00:00:10.94,-0.00067989039234817,0,
00:00:10.944,0.000338033278239891,0,
00:00:10.948,-0.0018877248512581,0,
00:00:10.952,-0.000205909760552458,0,
00:00:10.956,0.00756057957187295,0,
00:00:10.96,-0.00433726841583848,0,
00:00:10.964,-0.00403992272913456,0,
00:00:10.968,0.00357999675907195,0,
00:00:10.972,0.0020815646275878,0,
00:00:10.976,-0.00491958344355226,0,
00:00:10.98,-0.00435059377923608,0,
00:00:10.984,-0.000769413018133491,0,
00:00:10.988,0.0230712201446295,0,
00:00:10.992,-0.00182313856203109,0,
00:00:10.996,-0.029649643227458,0,
00:00:11,-0.0226169489324093,0,
00:00:11.004,0.0391035750508308,0,
00:00:11.008,0.0655836686491966,0,
00:00:11.012,-0.0303509049117565,0,
00:00:11.016,-0.0871138945221901,0,
00:00:11.02,0.0128808347508311,0,
00:00:11.024,0.067263551056385,0,
00:00:11.028,-0.0206827148795128,0,
00:00:11.032,-0.0492158383131027,0,
00:00:11.036,0.00274364999495447,0,
00:00:11.04,0.0878310576081276,0,
00:00:11.044,0.0518917962908745,0,
00:00:11.048,-0.107041195034981,0,
00:00:11.052,-0.0700336769223213,0,
00:00:11.056,0.0100745772942901,0,
00:00:11.06,0.0445068143308163,0,
00:00:11.064,0.0526682361960411,0,
00:00:11.068,0.0347150526940823,0,
00:00:11.072,-0.0297602154314518,0,
00:00:11.076,-0.0501095056533813,0,
00:00:11.08,-0.0276050604879856,0,
00:00:11.084,0.0120395738631487,0,
00:00:11.088,0.0464429147541523,0,
00:00:11.092,0.0102153327316046,0,
00:00:11.096,-0.0266482066363096,0,
00:00:11.1,-0.0137377297505736,0,
00:00:11.104,-1.63415643328335E-05,0,
00:00:11.108,0.00930003542453051,0,
00:00:11.112,0.00561300804838538,0,
00:00:11.116,0.00239253370091319,0,
00:00:11.12,0.00391754787415266,0,
00:00:11.124,-0.00359354168176651,0,
00:00:11.128,-0.00514026777818799,0,
00:00:11.132,-0.00531212938949466,0,
00:00:11.136,-0.000590104318689555,0,
00:00:11.14,0.00710206665098667,0,
00:00:11.144,0.0121551360934973,0,
00:00:11.148,-0.0190808828920126,0,
00:00:11.152,0.000208365410799161,0,
00:00:11.156,0.00470535317435861,0,
00:00:11.16,-0.00312402681447566,0,
00:00:11.164,0.00421636458486319,0,
00:00:11.168,0.0035143275745213,0,
00:00:11.172,0.000520682951901108,0,
00:00:11.176,0.000380132696591318,0,
00:00:11.18,-0.00836468767374754,0,
00:00:11.184,0.00286812544800341,0,
00:00:11.188,0.000752084655687213,0,
00:00:11.192,4.20705982833169E-05,0,
00:00:11.196,-0.00625651748850942,0,
00:00:11.2,0.0101510602980852,0,
00:00:11.204,-0.000962050922680646,0,
00:00:11.208,-0.00273404852487147,0,
00:00:11.212,0.00493793934583664,0,
00:00:11.216,-0.00146952387876809,0,
00:00:11.22,-0.00581421749666333,0,
00:00:11.224,-0.00290382350794971,0,
00:00:11.228,0.00296031986363232,0,
00:00:11.232,-0.00539832375943661,0,
00:00:11.236,0.00481695821508765,0,
00:00:11.24,0.0142051195725799,0,
00:00:11.244,-0.00514558935537934,0,
00:00:11.248,-0.00731379212811589,0,
00:00:11.252,-0.00125144724734128,0,
00:00:11.256,0.00293454411439598,0,
00:00:11.26,-0.000880585808772594,0,
00:00:11.264,-0.00307312631048262,0,
00:00:11.268,0.00401510996744037,0,
00:00:11.272,0.000354463467374444,0,
00:00:11.276,-0.00273013231344521,0,
00:00:11.28,-0.00269898120313883,0,
00:00:11.284,0.00132415327243507,0,
00:00:11.288,0.0138036133721471,0,
00:00:11.292,-0.0361134596168995,0,
00:00:11.296,-0.0212025977671146,0,
00:00:11.3,0.10428462177515,0,
00:00:11.304,0.0876667574048042,0,
00:00:11.308,-0.128117099404335,0,
00:00:11.312,-0.138158723711967,0,
00:00:11.316,0.00782231613993645,0,
00:00:11.32,0.104723714292049,0,
00:00:11.324,0.0611351989209652,0,
00:00:11.328,-0.0537151768803597,0,
00:00:11.332,-0.000564818445127457,0,
00:00:11.336,0.0861522555351257,0,
00:00:11.34,-0.0199454836547375,0,
00:00:11.344,-0.0953372567892075,0,
00:00:11.348,-0.0454025492072105,0,
00:00:11.352,0.0120463352650404,0,
00:00:11.356,0.0633133053779602,0,
00:00:11.36,0.0513207204639912,0,
00:00:11.364,-0.0147622786462307,0,
00:00:11.368,-0.0311409961432219,0,
00:00:11.372,-0.0172365419566631,0,
00:00:11.376,-0.000412310444517061,0,
00:00:11.38,0.0043278275988996,0,
00:00:11.384,0.0085417153313756,0,
00:00:11.388,0.00316986837424338,0,
00:00:11.392,0.00458059227094054,0,
00:00:11.396,-0.00487232720479369,0,
00:00:11.4,-0.00253100786358118,0,
00:00:11.404,-0.0013472125865519,0,
00:00:11.408,-0.000437749142292887,0,
00:00:11.412,0.000245823379373178,0,
00:00:11.416,-0.00148682470899075,0,
00:00:11.42,0.000488090998260304,0,
00:00:11.424,0.0102155413478613,0,
00:00:11.428,0.000148764069308527,0,
00:00:11.432,-0.0220839846879244,0,
00:00:11.436,0.0122367823496461,0,
00:00:11.44,0.00638910057023168,0,
00:00:11.444,0.00231180805712938,0,
00:00:11.448,-0.0153070753440261,0,
00:00:11.452,0.00513898674398661,0,
00:00:11.456,0.00439829984679818,0,
00:00:11.46,-0.000282067485386506,0,
00:00:11.464,0.00150964455679059,0,
00:00:11.468,0.00430077686905861,0,
00:00:11.472,-0.00514952419325709,0,
00:00:11.476,-0.000644779996946454,0,
00:00:11.48,-0.0115037150681019,0,
00:00:11.484,1.30094422274851E-05,0,
00:00:11.488,0.0130845000967383,0,
00:00:11.492,0.0116348611190915,0,
00:00:11.496,-0.00911995675414801,0,
00:00:11.5,-0.0111920526251197,0,
00:00:11.504,0.00125186645891517,0,
00:00:11.508,0.0103582143783569,0,
00:00:11.512,-0.00940194260329008,0,
00:00:11.516,0.00148082245141268,0,
00:00:11.52,0.00753170996904373,0,
00:00:11.524,-0.000171434425283223,0,
00:00:11.528,-0.00975047238171101,0,
00:00:11.532,0.000571501674130559,0,
00:00:11.536,0.00347256474196911,0,
00:00:11.54,-0.00154598499648273,0,
00:00:11.544,0.00462328689172864,0,
00:00:11.548,0.00665638921782374,0,
00:00:11.552,-0.00485021946951747,0,
00:00:11.556,-0.00384332775138319,0,
00:00:11.56,-0.00887062028050423,0,
00:00:11.564,-0.0012330129975453,0,
00:00:11.568,0.0114435916766524,0,
00:00:11.572,0.0172015260905027,0,
00:00:11.576,-0.0230018328875303,0,
00:00:11.58,-0.00948445871472359,0,
00:00:11.584,0.0141309937462211,0,
00:00:11.588,0.00331795401871204,0,
00:00:11.592,-0.00078832550207153,0,
00:00:11.596,0.00250403350219131,0,
00:00:11.6,0.00731649808585644,0,
00:00:11.604,-0.0114363441243768,0,
00:00:11.608,-0.0244596097618341,0,
00:00:11.612,-0.0568571425974369,0,
00:00:11.616,0.0556732602417469,0,
00:00:11.62,0.178293704986572,0,
00:00:11.624,-0.000697194249369204,0,
00:00:11.628,-0.204030871391296,0,
00:00:11.632,-0.105961635708809,0,
00:00:11.636,0.0350690744817257,0,
00:00:11.64,0.0991407111287117,0,
00:00:11.644,0.115660406649113,0,
00:00:11.648,0.0334414094686508,0,
00:00:11.652,-0.0985518768429756,0,
00:00:11.656,-0.0801578909158707,0,
00:00:11.66,0.0012669290881604,0,
00:00:11.664,0.037577610462904,0,
00:00:11.668,0.00621699402108788,0,
00:00:11.672,0.00904177688062191,0,
00:00:11.676,0.00932101812213659,0,
00:00:11.68,0.0210383106023073,0,
00:00:11.684,-0.0114079359918833,0,
00:00:11.688,-0.0331799313426018,0,
00:00:11.692,-0.00888723693788052,0,
00:00:11.696,0.00422425009310246,0,
00:00:11.7,0.00886533595621586,0,
00:00:11.704,0.0160980932414532,0,
00:00:11.708,0.00451646698638797,0,
00:00:11.712,-0.0181689504534006,0,
00:00:11.716,0.00325688696466386,0,
00:00:11.72,0.0332456417381763,0,
00:00:11.724,-0.0129067432135344,0,
00:00:11.728,-0.0329099260270596,0,
00:00:11.732,-0.0180572159588337,0,
00:00:11.736,0.0132997147738934,0,
00:00:11.74,0.0239954404532909,0,
00:00:11.744,-0.00174441060516983,0,
00:00:11.748,0.00238035339862108,0,
00:00:11.752,0.0313397534191608,0,
00:00:11.756,-0.000758596055675298,0,
00:00:11.76,-0.0571828298270702,0,
00:00:11.764,-0.016799746081233,0,
00:00:11.768,0.0163668934255838,0,
00:00:11.772,0.0239767096936703,0,
00:00:11.776,0.0133545454591513,0,
00:00:11.78,-0.00801360327750444,0,
00:00:11.784,-0.00157252221833915,0,
00:00:11.788,0.00429959502071142,0,
00:00:11.792,-0.0150072025135159,0,
00:00:11.796,-0.00354652036912739,0,
00:00:11.8,0.00941616389900446,0,
00:00:11.804,-0.00101891532540321,0,
00:00:11.808,0.000529320852365345,0,
00:00:11.812,-0.00165920541621745,0,
00:00:11.816,-0.000183431271580048,0,
00:00:11.82,0.00945583544671535,0,
00:00:11.824,-0.00864594336599112,0,
00:00:11.828,0.00231307069770992,0,
00:00:11.832,0.00317547749727964,0,
00:00:11.836,-0.0119929723441601,0,
00:00:11.84,-0.00463297218084335,0,
00:00:11.844,0.00647524325177073,0,
00:00:11.848,0.0140706477686763,0,
00:00:11.852,0.00239577447064221,0,
00:00:11.856,-0.0070279436185956,0,
00:00:11.86,-0.00865173432976007,0,
00:00:11.864,-0.000604926841333508,0,
00:00:11.868,0.00472953077405691,0,
00:00:11.872,-0.00749660655856133,0,
00:00:11.876,0.0139631936326623,0,
00:00:11.88,0.00674969237297773,0,
00:00:11.884,-0.0183796100318432,0,
00:00:11.888,0.00127215276006609,0,
00:00:11.892,0.00461146095767617,0,
00:00:11.896,-0.00609090644866228,0,
00:00:11.9,0.0073550776578486,0,
00:00:11.904,0.00689134420827031,0,
00:00:11.908,-0.00480329245328903,0,
00:00:11.912,-0.00974711775779724,0,
00:00:11.916,-0.000468430604087189,0,
00:00:11.92,0.00402370700612664,0,
00:00:11.924,0.00626241555437446,0,
00:00:11.928,0.00840986333787441,0,
00:00:11.932,-0.00977933220565319,0,
00:00:11.936,-0.0062416223809123,0,
00:00:11.94,-0.00770031986758113,0,
00:00:11.944,-0.00058204319793731,0,
00:00:11.948,0.0176972597837448,0,
00:00:11.952,0.0321198403835297,0,
00:00:11.956,-0.0243637077510357,0,
00:00:11.96,-0.0453219562768936,0,
00:00:11.964,-0.0396935418248177,0,
00:00:11.968,0.0619037784636021,0,
00:00:11.972,0.105383515357971,0,
00:00:11.976,-0.00834320019930601,0,
00:00:11.98,-0.109778217971325,0,
00:00:11.984,-0.0604699477553368,0,
00:00:11.988,0.0330072343349457,0,
00:00:11.992,0.0464453622698784,0,
00:00:11.996,0.0180940069258213,0,
00:00:12,0.0102195302024484,0,
00:00:12.004,-0.0177613906562328,0,
00:00:12.008,-0.0118747530505061,0,
00:00:12.012,0.0264567099511623,0,
00:00:12.016,0.0151544474065304,0,
00:00:12.02,-0.0433197692036629,0,
00:00:12.024,-0.0321093797683716,0,
00:00:12.028,0.0244624260812998,0,
00:00:12.032,0.0131590217351913,0,
00:00:12.036,0.00814819987863302,0,
00:00:12.04,-0.0194650590419769,0,
00:00:12.044,0.00409004651010036,0,
00:00:12.048,0.0384922921657562,0,
00:00:12.052,0.0093440655618906,0,
00:00:12.056,-0.0273088067770004,0,
00:00:12.06,-0.043569665402174,0,
00:00:12.064,-0.00557173322886229,0,
00:00:12.068,0.0130224591121078,0,
00:00:12.072,0.0230487119406462,0,
00:00:12.076,0.0287575870752335,0,
00:00:12.08,-0.0058333883062005,0,
00:00:12.084,-0.0174582693725824,0,
00:00:12.088,-0.00555156311020255,0,
00:00:12.092,-0.00209895963780582,0,
00:00:12.096,-0.0131939528509974,0,
00:00:12.1,0.0183859374374151,0,
00:00:12.104,0.000853202946018428,0,
00:00:12.108,0.00765637354925275,0,
00:00:12.112,-0.0175077971071005,0,
00:00:12.116,-0.00605061743408442,0,
00:00:12.12,-0.00125528080388904,0,
00:00:12.124,0.0519874729216099,0,
00:00:12.128,-0.0202485453337431,0,
00:00:12.132,-0.0315474607050419,0,
00:00:12.136,-0.00931938458234072,0,
00:00:12.14,0.0142490845173597,0,
00:00:12.144,0.009803949855268,0,
00:00:12.148,0.00938295386731625,0,
00:00:12.152,0.0010847783414647,0,
00:00:12.156,-0.0113404430449009,0,
00:00:12.16,-0.00672234827652574,0,
00:00:12.164,0.0129572013393044,0,
00:00:12.168,-0.00538172852247953,0,
00:00:12.172,-0.00544233294203877,0,
00:00:12.176,0.00356004084460437,0,
00:00:12.18,-0.00313157238997519,0,
00:00:12.184,-0.00406647985801101,0,
00:00:12.188,0.0154705578461289,0,
00:00:12.192,0.0134267630055547,0,
00:00:12.196,-0.0182900074869394,0,
00:00:12.2,-0.0184174217283726,0,
00:00:12.204,-0.00802609790116549,0,
00:00:12.208,-0.0214321333914995,0,
00:00:12.212,0.0294553078711033,0,
00:00:12.216,0.154076635837555,0,
00:00:12.22,0.0152353867888451,0,
00:00:12.224,-0.205941051244736,0,
00:00:12.228,-0.117350801825523,0,
00:00:12.232,0.0267613530158997,0,
00:00:12.236,0.14517417550087,0,
00:00:12.24,0.143944054841995,0,
00:00:12.244,-0.0378466658294201,0,
00:00:12.248,-0.130859673023224,0,
00:00:12.252,-0.036335177719593,0,
00:00:12.256,0.0266849789768457,0,
00:00:12.26,0.036631491035223,0,
00:00:12.264,0.00223466544412076,0,
00:00:12.268,-0.00401336047798395,0,
00:00:12.272,0.00243242620490491,0,
00:00:12.276,-0.00107974908314645,0,
00:00:12.28,-0.00389889720827341,0,
00:00:12.284,0.00266123493202031,0,
00:00:12.288,0.00316393119283021,0,
00:00:12.292,-0.00548047479242086,0,
00:00:12.296,-0.0020031149033457,0,
00:00:12.3,-0.000187276818905957,0,
00:00:12.304,0.00067669985583052,0,
00:00:12.308,0.00296120787970722,0,
00:00:12.312,-0.00544227380305529,0,
00:00:12.316,0.00263432017527521,0,
00:00:12.32,0.00519281066954136,0,
00:00:12.324,0.00321266753599048,0,
00:00:12.328,-0.00850851275026798,0,
00:00:12.332,-0.00717498734593391,0,
00:00:12.336,0.000727796228602529,0,
00:00:12.34,0.00970093626528978,0,
00:00:12.344,0.00988575536757708,0,
00:00:12.348,-0.00648175040259957,0,
00:00:12.352,-0.0239900648593903,0,
00:00:12.356,0.0439825318753719,0,
00:00:12.36,-0.00494510401040316,0,
00:00:12.364,-0.0405524559319019,0,
00:00:12.368,-0.00940176378935575,0,
00:00:12.372,0.0312390513718128,0,
00:00:12.376,0.00456010270863771,0,
00:00:12.38,-0.00454392982646823,0,
00:00:12.384,-0.000328898895531893,0,
00:00:12.388,0.00299809710122645,0,
00:00:12.392,0.00466699851676822,0,
00:00:12.396,-0.00599989201873541,0,
00:00:12.4,-0.0101934997364879,0,
00:00:12.404,-0.00449716439470649,0,
00:00:12.408,0.0167078450322151,0,
00:00:12.412,0.00626042811200023,0,
00:00:12.416,-0.0138975763693452,0,
00:00:12.42,0.000652123300824314,0,
00:00:12.424,0.00887267384678125,0,
00:00:12.428,-0.0175583083182573,0,
00:00:12.432,-0.000148908031405881,0,
00:00:12.436,0.0181322861462832,0,
00:00:12.44,0.00382763659581542,0,
00:00:12.444,-0.0129807954654098,0,
00:00:12.448,-0.000750428589526564,0,
00:00:12.452,0.0105232149362564,0,
00:00:12.456,-0.0105564715340734,0,
00:00:12.46,-0.00251913606189191,0,
00:00:12.464,0.00393315497785807,0,
00:00:12.468,-0.00110070628579706,0,
00:00:12.472,0.0044507603161037,0,
00:00:12.476,2.29004526772769E-05,0,
00:00:12.48,-0.00330225541256368,0,
00:00:12.484,-0.00110332621261477,0,
00:00:12.488,0.00325383781455457,0,
00:00:12.492,0.00611040368676186,0,
00:00:12.496,-0.0042836950160563,0,
00:00:12.5,-0.00903441477566957,0,
00:00:12.504,0.0020392753649503,0,
00:00:12.508,0.00212988094426692,0,
00:00:12.512,0.00448102131485939,0,
00:00:12.516,0.00388982682488859,0,
00:00:12.52,-0.000962988589890301,0,
00:00:12.524,-0.00591114256531,0,
00:00:12.528,-0.00372968404553831,0,
00:00:12.532,-0.00217006471939385,0,
00:00:12.536,0.00207738182507455,0,
00:00:12.54,0.00611222209408879,0,
00:00:12.544,0.00333577557466924,0,
00:00:12.548,-0.000437455339124426,0,
00:00:12.552,-0.00460674893110991,0,
00:00:12.556,0.00355333997868001,0,
00:00:12.56,0.00045128894271329,0,
00:00:12.564,-0.0112427538260818,0,
00:00:12.568,-0.00179186381865293,0,
00:00:12.572,0.0086183799430728,0,
00:00:12.576,0.00171896896790713,0,
00:00:12.58,0.0022568057756871,0,
00:00:12.584,0.000133056979393587,0,
00:00:12.588,0.000477676338050514,0,
00:00:12.592,-0.00187869241926819,0,
00:00:12.596,-0.00907271075993776,0,
00:00:12.6,-0.000237654981901869,0,
00:00:12.604,0.00846297387033701,0,
00:00:12.608,0.00469441851601005,0,
00:00:12.612,-0.00496221100911498,0,
00:00:12.616,-0.00385449756868184,0,
00:00:12.62,0.00172670686151832,0,
00:00:12.624,0.00405955966562033,0,
00:00:12.628,-0.0034544684458524,0,
00:00:12.632,-0.00231544766575098,0,
00:00:12.636,0.0045684278011322,0,
00:00:12.64,0.00208190316334367,0,
00:00:12.644,-0.00343053764663637,0,
00:00:12.648,-0.00490631489083171,0,
00:00:12.652,-0.000628585694357753,0,
00:00:12.656,0.0089420136064291,0,
00:00:12.66,-0.000518906046636403,0,
00:00:12.664,-0.00492328079417348,0,
00:00:12.668,-0.00204974878579378,0,
00:00:12.672,0.00536121055483818,0,
00:00:12.676,0.000594332523178309,0,
00:00:12.68,-0.00130915769841522,0,
00:00:12.684,-0.00346312718465924,0,
00:00:12.688,0.00130373693536967,0,
00:00:12.692,0.00379474740475416,0,
00:00:12.696,0.000758858863264322,0,
00:00:12.7,-0.00811010599136353,0,
00:00:12.704,0.0013933687005192,0,
00:00:12.708,0.00543063413351774,0,
00:00:12.712,3.64187981176656E-05,0,
00:00:12.716,-0.00361773301847279,0,
00:00:12.72,0.000739604060072452,0,
00:00:12.724,0.00126413628458977,0,
00:00:12.728,0.000467583449790254,0,
00:00:12.732,-0.000315391196636483,0,
00:00:12.736,-0.000615514989476651,0,
00:00:12.74,0.00574679905548692,0,
00:00:12.744,-0.0081607848405838,0,
00:00:12.748,-0.00490737752988935,0,
00:00:12.752,0.00125262723304331,0,
00:00:12.756,0.00446214620023966,0,
00:00:12.76,0.0102953966706991,0,
00:00:12.764,-0.00210920535027981,0,
00:00:12.768,-0.00750130601227283,0,
00:00:12.772,0.00221435911953449,0,
00:00:12.776,-0.00541215157136321,0,
00:00:12.78,-0.00414994079619646,0,
00:00:12.784,0.0062634670175612,0,
00:00:12.788,0.00556818395853043,0,
00:00:12.792,0.00356281222775579,0,
00:00:12.796,-0.00373744033277035,0,
00:00:12.8,-0.00860991887748241,0,
00:00:12.804,0.0037561934441328,0,
00:00:12.808,0.00355207803659141,0,
00:00:12.812,-0.00173508154693991,0,
00:00:12.816,-0.00394776277244091,0,
00:00:12.82,0.00154530047439039,0,
00:00:12.824,0.00445942208170891,0,
00:00:12.828,0.00135235476773232,0,
00:00:12.832,-0.00786575488746166,0,
00:00:12.836,0.00336484401486814,0,
00:00:12.84,0.00109268131200224,0,
00:00:12.844,8.72606397024356E-05,0,
00:00:12.848,-0.000240963738178834,0,
00:00:12.852,-0.00231821183115244,0,
00:00:12.856,0.0039227013476193,0,
00:00:12.86,0.00172596133779734,0,
00:00:12.864,-0.00754723651334643,0,
00:00:12.868,0.00134220928885043,0,
00:00:12.872,0.00295322528108954,0,
00:00:12.876,0.00367211387492716,0,
00:00:12.88,-2.48042961175088E-05,0,
00:00:12.884,-0.00883163791149855,0,
00:00:12.888,0.00104556709993631,0,
00:00:12.892,0.00545008527114987,0,
00:00:12.896,0.00025547604309395,0,
00:00:12.9,-0.00338196381926537,0,
00:00:12.904,0.000880113861057907,0,
00:00:12.908,0.00543811777606606,0,
00:00:12.912,-0.00561607349663973,0,
00:00:12.916,-0.00585534935817122,0,
00:00:12.92,0.00664020329713821,0,
00:00:12.924,0.00266948225907981,0,
00:00:12.928,-0.000224708957830444,0,
00:00:12.932,-0.00148608942981809,0,
00:00:12.936,-0.00349168945103884,0,
00:00:12.94,0.0075120385736227,0,
00:00:12.944,-0.00422397954389453,0,
00:00:12.948,-0.00841805338859558,0,
00:00:12.952,0.00310101476497948,0,
00:00:12.956,0.00718325329944491,0,
00:00:12.96,0.000896549609024078,0,
00:00:12.964,-0.00370711227878928,0,
00:00:12.968,-0.00195698137395084,0,
00:00:12.972,0.0046504158526659,0,
00:00:12.976,0.00180845835711807,0,
00:00:12.98,-0.0059036985039711,0,
00:00:12.984,-0.00322441151365638,0,
00:00:12.988,0.00507111987099051,0,
00:00:12.992,0.00109000271186233,0,
00:00:12.996,-0.00054954580264166,0,
00:00:13,-0.00289235822856426,0,
00:00:13.004,-0.000575893733184785,0,
00:00:13.008,0.00564970774576068,0,
00:00:13.012,0.00213965401053429,0,
00:00:13.016,-0.00401664944365621,0,
00:00:13.02,-0.00559629732742906,0,
00:00:13.024,0.00309191318228841,0,
00:00:13.028,0.000761422386858612,0,
00:00:13.032,0.000318319769576192,0,
00:00:13.036,-0.00174573098774999,0,
00:00:13.04,0.0022537384647876,0,
00:00:13.044,0.00175327097531408,0,
00:00:13.048,0.000108421547338367,0,
00:00:13.052,-0.0030895450618118,0,
00:00:13.056,0.00284987757913768,0,
00:00:13.06,-0.00107276323251426,0,
00:00:13.064,-0.0015748479636386,0,
00:00:13.068,-0.00068919884506613,0,
00:00:13.072,-0.00180164573248476,0,
00:00:13.076,0.00479103252291679,0,
00:00:13.08,0.00242139329202473,0,
00:00:13.084,-0.00518301129341125,0,
00:00:13.088,-0.00071170466253534,0,
00:00:13.092,0.00104873278178275,0,
00:00:13.096,0.00116056005936116,0,
00:00:13.1,-0.00150439934805036,0,
00:00:13.104,0.00192252127453685,0,
00:00:13.108,0.00332727539353073,0,
00:00:13.112,-0.00220678374171257,0,
00:00:13.116,-0.00479457573965192,0,
00:00:13.12,0.000745032855775207,0,
00:00:13.124,0.00404032878577709,0,
00:00:13.128,0.00136734126135707,0,
00:00:13.132,-0.00550204841420054,0,
00:00:13.136,-0.000346609653206542,0,
00:00:13.14,0.00373409013263881,0,
00:00:13.144,-0.000349362962879241,0,
00:00:13.148,-0.00298815523274243,0,
00:00:13.152,0.00164143287111074,0,
00:00:13.156,0.00187344173900783,0,
00:00:13.16,0.000598112994339317,0,
00:00:13.164,-0.000547501374967396,0,
00:00:13.168,-0.00304916431196034,0,
00:00:13.172,0.00536267878487706,0,
00:00:13.176,-0.00258837500587106,0,
00:00:13.18,-0.00503793312236667,0,
00:00:13.184,0.00112082588020712,0,
00:00:13.188,0.00261593819595873,0,
00:00:13.192,0.00384467211551964,0,
00:00:13.196,-0.00162955280393362,0,
00:00:13.2,-0.00436824653297663,0,
00:00:13.204,0.000868709234055132,0,
00:00:13.208,0.00389197771437466,0,
00:00:13.212,-0.00305831898003817,0,
00:00:13.216,-0.0017990079941228,0,
00:00:13.22,0.00487853633239865,0,
00:00:13.224,-0.00205357233062387,0,
00:00:13.228,0.000333819072693586,0,
00:00:13.232,0.00229275086894631,0,
00:00:13.236,-0.00231913011521101,0,
00:00:13.24,-0.00429008156061172,0,
00:00:13.244,0.00346088176593184,0,
00:00:13.248,-0.00165628723334521,0,
00:00:13.252,-0.000363600323908031,0,
00:00:13.256,0.0097301434725523,0,
00:00:13.26,-0.00398440612480044,0,
00:00:13.264,-0.00746685173362494,0,
00:00:13.268,-0.000295506382826716,0,
00:00:13.272,0.00252085621468723,0,
00:00:13.276,0.00454183435067534,0,
00:00:13.28,-0.00289050163701177,0,
00:00:13.284,-0.00189574400428683,0,
00:00:13.288,0.00258643738925457,0,
